-0.022695
0.027560
0.058211
0.089720
0.116010
0.128645
0.114165
0.084514
0.054560
0.012035
-0.033301
-0.075276
-0.125688
-0.156797
-0.175056
-0.180298
-0.165515
-0.144635
-0.122709
-0.083369
-0.031324
0.007736
0.057190
0.093565
0.106879
0.117223
0.105858
0.077954
0.052692
0.011801
-0.035635
-0.078870
-0.114807
-0.142350
-0.170031
-0.177628
-0.171823
-0.137087
-0.113239
-0.076402
-0.030789
0.010175
0.045003
0.080728
0.109383
0.108350
0.105734
0.079764
0.043258
-0.001009
-0.054372
-0.088040
-0.127748
-0.157734
-0.182037
-0.183313
-0.171517
-0.149951
-0.111923
-0.073533
-0.020127
0.013021
0.050907
0.082225
0.105466
0.114976
0.104591
0.074509
0.051411
-0.000676
-0.043890
-0.083492
-0.134636
-0.169203
-0.182567
-0.182530
-0.173001
-0.142583
-0.105225
-0.073515
-0.037089
0.003302
0.056849
0.090794
0.101664
0.100482
0.100936
0.073567
0.039112
0.003096
-0.057116
-0.097933
-0.137440
-0.163978
-0.178759
-0.192600
-0.189542
-0.159727
-0.117547
-0.072588
-0.021749
0.023130
0.057414
0.086677
0.094231
0.103110
0.096952
0.083631
0.047604
0.003417
-0.040893
-0.082232
-0.128964
-0.155275
-0.176328
-0.181275
-0.173135
-0.144588
-0.105128
-0.070032
-0.024455
0.022950
0.069560
0.099753
0.127278
0.131736
0.120921
0.101496
0.066835
0.024568
-0.016601
-0.052613
-0.095834
-0.130975
-0.144866
-0.149082
-0.138855
-0.118415
-0.087458
-0.046986
0.002127
0.032561
0.081694
0.115823
0.132505
0.134320
0.127666
0.105806
0.076101
0.037013
-0.006246
-0.046294
-0.091634
-0.123192
-0.133301
-0.133140
-0.120919
-0.096909
-0.072133
-0.027140
0.025924
0.065391
0.105001
0.138644
0.166539
0.177730
0.163924
0.138480
0.108297
0.069810
0.005019
-0.034189
-0.079911
-0.119000
-0.154097
-0.168744
-0.158854
-0.129424
-0.102230
-0.056036
-0.005073
0.032633
0.077292
0.107426
0.129200
0.134155
0.121386
0.096766
0.061113
0.013658
-0.034136
-0.074937
-0.115620
-0.142090
-0.174235
-0.187754
-0.177158
-0.152189
-0.132740
-0.080503
-0.036899
0.004382
0.047703
0.072191
0.090037
0.085629
0.086662
0.057694
0.037605
-0.005762
-0.044708
-0.096272
-0.147323
-0.179616
-0.202888
-0.221310
-0.208216
-0.179028
-0.147967
-0.106991
-0.054856
-0.017455
0.030077
0.052107
0.073834
0.079745
0.082872
0.061246
0.026874
-0.015344
-0.068983
-0.109430
-0.141294
-0.170077
-0.204308
-0.218610
-0.208530
-0.178182
-0.138654
-0.098304
-0.059040
-0.013833
0.021168
0.059129
0.077835
0.090760
0.078334
0.057222
0.021164
-0.018712
-0.069207
-0.112058
-0.152079
-0.183814
-0.203143
-0.213958
-0.201833
-0.171415
-0.146605
-0.093045
-0.045793
-0.014167
0.025325
0.057286
0.074101
0.071775
0.068575
0.059685
0.022060
-0.025715
-0.072161
-0.118295
-0.162319
-0.194064
-0.223468
-0.233395
-0.217815
-0.197145
-0.155811
-0.107997
-0.057202
-0.001657
0.047271
0.093872
0.124652
0.148705
0.157331
0.147509
0.122483
0.090590
0.061766
0.035109
0.011183
0.004102
0.005913
0.011388
0.049410
0.094876
0.164228
0.237613
0.317049
0.401473
0.474791
0.543130
0.591535
0.632339
0.659051
0.682052
0.688601
0.680373
0.668511
0.657848
0.647781
0.641214
0.615670
0.605996
0.621076
0.617536
0.636697
0.654180
0.676810
0.700350
0.687751
0.645626
0.607081
0.555388
0.492372
0.419393
0.328249
0.254372
0.173538
0.110527
0.057177
0.013550
-0.014915
-0.026590
-0.018229
-0.015514
0.006303
0.033837
0.069228
0.101930
0.132365
0.160309
0.185192
0.190435
0.180655
0.162514
0.126575
0.073424
0.018658
-0.027586
-0.061674
-0.102246
-0.124487
-0.124473
-0.126287
-0.116257
-0.085246
-0.039981
0.005507
0.042453
0.079247
0.098378
0.120963
0.126603
0.130624
0.109661
0.073484
0.023101
-0.029385
-0.068872
-0.099531
-0.121519
-0.142489
-0.154470
-0.148592
-0.131862
-0.093102
-0.039149
0.001255
0.042631
0.085217
0.108565
0.125529
0.133875
0.121571
0.102588
0.069359
0.037424
-0.020071
-0.062092
-0.098205
-0.133125
-0.153686
-0.161467
-0.147705
-0.116877
-0.081165
-0.040259
-0.000928
0.048607
0.084720
0.108129
0.144365
0.149917
0.138847
0.116045
0.086810
0.044871
-0.006140
-0.048438
-0.089122
-0.119930
-0.146326
-0.152361
-0.138489
-0.103700
-0.064836
-0.022013
0.022540
0.063558
0.115628
0.146770
0.175226
0.177213
0.163800
0.132036
0.096079
0.065104
0.027419
-0.023392
-0.059498
-0.093662
-0.121996
-0.131187
-0.109224
-0.080614
-0.046882
-0.007213
0.036555
0.090235
0.143166
0.175748
0.205316
0.204966
0.180263
0.162694
0.135775
0.105265
0.060475
0.013934
-0.024275
-0.050623
-0.070524
-0.080590
-0.071022
-0.052716
-0.008660
0.040553
0.079674
0.129096
0.174601
0.209961
0.231616
0.231212
0.218741
0.203591
0.176284
0.134446
0.087595
0.040547
-0.003498
-0.026716
-0.041035
-0.061633
-0.043921
-0.021427
0.016441
0.053098
0.094793
0.144616
0.193194
0.228462
0.241573
0.247828
0.235176
0.217311
0.189601
0.152086
0.100163
0.048993
0.004733
-0.029931
-0.052186
-0.054336
-0.052436
-0.024707
0.014844
0.065014
0.105588
0.150869
0.180615
0.204883
0.223361
0.234235
0.226029
0.209368
0.169435
0.131495
0.087805
0.038851
-0.008735
-0.052484
-0.070357
-0.065912
-0.054913
-0.044115
0.008161
0.044426
0.077869
0.118688
0.165820
0.186624
0.211516
0.213221
0.201567
0.189850
0.155173
0.105839
0.057493
-0.005552
-0.046083
-0.079840
-0.097573
-0.108053
-0.098525
-0.078649
-0.034386
-0.005452
0.033383
0.083639
0.115779
0.146741
0.166482
0.166659
0.167328
0.141599
0.100527
0.059959
0.012007
-0.035673
-0.081048
-0.118867
-0.140974
-0.146527
-0.129890
-0.107240
-0.086156
-0.052611
0.001927
0.047096
0.086683
0.119202
0.139888
0.145258
0.131409
0.106872
0.066902
0.024319
-0.023833
-0.066765
-0.101181
-0.121156
-0.156123
-0.165481
-0.157750
-0.141331
-0.089797
-0.060516
-0.009030
0.033084
0.074327
0.108527
0.126531
0.122397
0.118045
0.096756
0.060954
0.010756
-0.029673
-0.082471
-0.120999
-0.155293
-0.169061
-0.181077
-0.154686
-0.134613
-0.094807
-0.054185
-0.018045
0.027734
0.077820
0.101615
0.131001
0.128867
0.116563
0.094135
0.049766
0.005904
-0.028990
-0.079579
-0.120683
-0.164131
-0.177037
-0.172589
-0.158588
-0.132281
-0.091708
-0.051090
-0.004975
0.036228
0.070142
0.105649
0.131111
0.131606
0.132146
0.112320
0.067982
0.027471
-0.019395
-0.057385
-0.094509
-0.132751
-0.159486
-0.149845
-0.147880
-0.128150
-0.100506
-0.051908
-0.011216
0.033931
0.071184
0.102193
0.126959
0.141005
0.125231
0.104223
0.070690
0.026508
-0.019082
-0.067408
-0.103515
-0.131218
-0.163704
-0.165817
-0.146249
-0.127418
-0.106134
-0.060079
-0.004679
0.044965
0.090581
0.116855
0.135112
0.145730
0.134847
0.107432
0.069231
0.019185
-0.025083
-0.070792
-0.103711
-0.129129
-0.152313
-0.161363
-0.163144
-0.138482
-0.090586
-0.052880
-0.008083
0.042353
0.075621
0.109808
0.134029
0.137830
0.123635
0.107260
0.064764
0.030694
-0.010862
-0.062224
-0.100137
-0.131633
-0.157185
-0.161882
-0.143941
-0.130481
-0.100428
-0.055500
-0.012559
0.027265
0.055960
0.100909
0.122314
0.126247
0.117313
0.101151
0.062402
0.025078
-0.030015
-0.067169
-0.108584
-0.127534
-0.156380
-0.166518
-0.158275
-0.144608
-0.106602
-0.065703
-0.018670
0.031159
0.068661
0.092720
0.110734
0.121916
0.110502
0.091624
0.058543
0.020219
-0.025731
-0.067156
-0.120418
-0.152699
-0.171720
-0.175404
-0.159885
-0.141557
-0.099907
-0.067821
-0.016277
0.030398
0.058115
0.091252
0.114246
0.121390
0.103293
0.084773
0.046567
0.017246
-0.040620
-0.087074
-0.117988
-0.146277
-0.170529
-0.175982
-0.178705
-0.156048
-0.107691
-0.077168
-0.033272
0.012082
0.049109
0.085958
0.111777
0.119459
0.111127
0.083495
0.047053
0.012541
-0.023391
-0.082469
-0.124143
-0.159272
-0.176262
-0.167429
-0.164172
-0.155083
-0.115993
-0.080506
-0.024037
0.018923
0.051810
0.081543
0.088646
0.099505
0.084006
0.073848
0.044465
0.003610
-0.033320
-0.089427
-0.127402
-0.152883
-0.168938
-0.183150
-0.179667
-0.156942
-0.113320
-0.084590
-0.044353
0.006007
0.045598
0.079944
0.108975
0.115853
0.105186
0.081528
0.049268
-0.001440
-0.035959
-0.093333
-0.123432
-0.160629
-0.176414
-0.178356
-0.167374
-0.149876
-0.114602
-0.078347
-0.031003
0.015738
0.047137
0.077617
0.099326
0.106007
0.104777
0.073396
0.038217
0.002883
-0.051575
-0.099045
-0.131183
-0.166765
-0.189410
-0.187526
-0.190570
-0.165751
-0.122197
-0.078525
-0.020202
0.030133
0.067255
0.120008
0.141084
0.136867
0.122489
0.112554
0.075087
0.017906
-0.027018
-0.068843
-0.107471
-0.141170
-0.156082
-0.163113
-0.140571
-0.118011
-0.082662
-0.051521
0.000110
0.045832
0.083062
0.119131
0.145887
0.148351
0.139874
0.121100
0.082132
0.038815
-0.009977
-0.046945
-0.087924
-0.128438
-0.151219
-0.155915
-0.150325
-0.114920
-0.068093
-0.025976
0.026493
0.070261
0.103278
0.143787
0.161835
0.167223
0.157770
0.148281
0.117468
0.070799
0.023651
-0.021686
-0.063879
-0.106682
-0.129890
-0.140845
-0.139658
-0.123799
-0.088152
-0.054841
-0.004976
0.048158
0.078980
0.108604
0.129332
0.124285
0.114950
0.096139
0.058887
0.020769
-0.024738
-0.078430
-0.115092
-0.144226
-0.166404
-0.175650
-0.177073
-0.160499
-0.112434
-0.072429
-0.031510
0.008198
0.047041
0.070123
0.089943
0.097825
0.090199
0.070452
0.025878
-0.013626
-0.057737
-0.108085
-0.148055
-0.180937
-0.205084
-0.211549
-0.192144
-0.181595
-0.146276
-0.094377
-0.058303
-0.004744
0.030615
0.064501
0.081442
0.092841
0.081704
0.055100
0.017006
-0.023834
-0.071275
-0.106057
-0.148411
-0.187454
-0.196039
-0.200650
-0.206865
-0.182678
-0.142178
-0.102198
-0.051580
-0.008710
0.025291
0.061091
0.081130
0.084296
0.070125
0.057305
0.023875
-0.024927
-0.079908
-0.119659
-0.150055
-0.187405
-0.223131
-0.222278
-0.208705
-0.167413
-0.131035
-0.104284
-0.063297
-0.010207
0.025809
0.068309
0.075135
0.084993
0.077721
0.056142
0.022738
-0.010873
-0.057818
-0.106534
-0.156006
-0.195799
-0.216314
-0.219597
-0.216013
-0.192685
-0.161783
-0.121094
-0.083274
-0.038070
0.006525
0.054586
0.084397
0.112094
0.106905
0.088743
0.063567
0.040098
0.009241
-0.019409
-0.037730
-0.052411
-0.073130
-0.064118
-0.032026
0.003187
0.053692
0.123706
0.206135
0.288888
0.367125
0.429284
0.478087
0.519056
0.548775
0.571444
0.556795
0.552805
0.543222
0.536583
0.534639
0.536724
0.538808
0.565971
0.600290
0.631484
0.674815
0.730841
0.763489
0.781964
0.803746
0.813220
0.817283
0.775583
0.695576
0.601215
0.497581
0.396378
0.305417
0.221551
0.124128
0.049284
0.003298
-0.005558
-0.000980
0.013218
0.044117
0.071876
0.107353
0.139704
0.166427
0.185680
0.212451
0.211736
0.192217
0.168206
0.129325
0.078621
0.030375
-0.026213
-0.068017
-0.099640
-0.122913
-0.131175
-0.130930
-0.116939
-0.084465
-0.046418
-0.000506
0.049737
0.099823
0.127524
0.144431
0.153588
0.150560
0.127089
0.085655
0.038125
-0.014884
-0.062453
-0.103812
-0.142070
-0.163168
-0.174228
-0.158194
-0.132179
-0.102727
-0.057832
-0.016109
0.029176
0.071977
0.099968
0.127976
0.120404
0.106072
0.086028
0.063578
0.026310
-0.023798
-0.068880
-0.098238
-0.129756
-0.143449
-0.153657
-0.152287
-0.126403
-0.090373
-0.050123
0.002884
0.043449
0.087328
0.112514
0.135622
0.157487
0.140762
0.118892
0.087755
0.040271
-0.015885
-0.055438
-0.095794
-0.129760
-0.135494
-0.149534
-0.140492
-0.115958
-0.082588
-0.046586
0.003934
0.052638
0.090479
0.137570
0.160604
0.171013
0.157260
0.131191
0.096582
0.054649
0.018147
-0.024504
-0.065838
-0.102454
-0.118402
-0.122182
-0.115941
-0.098109
-0.053769
-0.002325
0.035618
0.091936
0.151896
0.172860
0.190687
0.194184
0.187124
0.156973
0.129406
0.088561
0.045507
-0.002520
-0.039422
-0.076466
-0.097949
-0.105681
-0.090104
-0.058632
-0.018848
0.043169
0.081703
0.123192
0.173970
0.203377
0.212376
0.219136
0.213764
0.193913
0.162247
0.124457
0.070026
0.021329
-0.018407
-0.043497
-0.064088
-0.067460
-0.056902
-0.027007
0.005852
0.048602
0.086770
0.142227
0.184822
0.216116
0.238550
0.244593
0.242414
0.216849
0.188668
0.138466
0.089787
0.047615
0.013918
-0.027742
-0.052629
-0.065215
-0.051571
-0.022505
0.014874
0.058357
0.109373
0.149823
0.189146
0.215002
0.230422
0.240751
0.232993
0.204626
0.171218
0.124404
0.080992
0.034597
-0.002362
-0.032439
-0.052586
-0.057080
-0.056418
-0.040499
-0.012808
0.033168
0.078182
0.125087
0.163602
0.195475
0.213627
0.210434
0.188208
0.174207
0.142650
0.100919
0.061968
0.015329
-0.046560
-0.084685
-0.101667
-0.116345
-0.101076
-0.073230
-0.048430
-0.005305
0.038561
0.082854
0.123777
0.145005
0.164236
0.179274
0.172841
0.157948
0.112647
0.052881
0.001077
-0.047527
-0.077492
-0.109352
-0.133730
-0.149514
-0.146722
-0.118177
-0.093672
-0.040733
0.018829
0.066833
0.097125
0.131423
0.133652
0.129295
0.134929
0.099012
0.074958
0.031390
-0.016396
-0.066289
-0.105622
-0.137014
-0.161022
-0.167761
-0.155592
-0.144450
-0.111926
-0.063846
-0.018664
0.023604
0.068786
0.101729
0.117853
0.127654
0.119572
0.088454
0.065272
0.019443
-0.030185
-0.077041
-0.109669
-0.149749
-0.173243
-0.183803
-0.186634
-0.151413
-0.108210
-0.068129
-0.025285
0.015404
0.051321
0.081663
0.103432
0.109914
0.111650
0.082978
0.055240
0.015976
-0.025760
-0.066984
-0.114444
-0.149501
-0.156961
-0.166419
-0.163667
-0.146219
-0.124690
-0.075770
-0.011492
0.030998
0.074153
0.092913
0.114548
0.113679
0.106494
0.094909
0.063476
0.016037
-0.028188
-0.073817
-0.115595
-0.145640
-0.160798
-0.165688
-0.159372
-0.137731
-0.101042
-0.055969
-0.012685
0.046645
0.085227
0.115786
0.125869
0.131133
0.125521
0.105969
0.071124
0.033853
-0.021034
-0.063083
-0.100750
-0.145554
-0.150428
-0.159732
-0.150070
-0.123502
-0.097778
-0.052609
-0.007668
0.042930
0.074633
0.107725
0.128199
0.142504
0.127097
0.104838
0.065877
0.023183
-0.017714
-0.069487
-0.114933
-0.134726
-0.154241
-0.172271
-0.159794
-0.133890
-0.109679
-0.056105
-0.014694
0.037876
0.071631
0.099310
0.120676
0.141845
0.142987
0.111511
0.077572
0.029927
-0.018745
-0.069977
-0.116807
-0.137382
-0.148947
-0.177354
-0.160905
-0.127579
-0.097260
-0.056166
-0.013482
0.013651
0.062067
0.087648
0.117547
0.138082
0.117962
0.100652
0.061085
0.012697
-0.023759
-0.076169
-0.130929
-0.149715
-0.166301
-0.176323
-0.172127
-0.158389
-0.123447
-0.066494
-0.023557
0.025735
0.063342
0.087247
0.103967
0.124990
0.108417
0.088126
0.062780
0.014551
-0.027451
-0.075085
-0.125893
-0.150197
-0.168871
-0.179269
-0.173338
-0.148221
-0.116874
-0.084184
-0.039874
-0.001391
0.056019
0.093607
0.105232
0.112383
0.112230
0.089732
0.057146
0.008376
-0.040573
-0.087253
-0.130882
-0.161862
-0.172224
-0.183661
-0.186923
-0.166992
-0.125243
-0.077975
-0.039407
0.004137
0.058964
0.095260
0.115342
0.117390
0.105699
0.076699
0.045099
0.001605
-0.037411
-0.087702
-0.129392
-0.170164
-0.193529
-0.191682
-0.183959
-0.154630
-0.124164
-0.086381
-0.048607
0.006133
0.047735
0.077528
0.106371
0.126255
0.109275
0.086602
0.044068
-0.001437
-0.055165
-0.096619
-0.129629
-0.148532
-0.178759
-0.184346
-0.186939
-0.163351
-0.137164
-0.092445
-0.042969
0.000374
0.046589
0.077313
0.094511
0.110172
0.102481
0.079528
0.038517
-0.013444
-0.051666
-0.092897
-0.140987
-0.169881
-0.188188
-0.191099
-0.177391
-0.162533
-0.136467
-0.087950
-0.035884
0.010491
0.049190
0.070968
0.090739
0.104234
0.097918
0.064557
0.037068
-0.000207
-0.040147
-0.086089
-0.133237
-0.171338
-0.190078
-0.187283
-0.176218
-0.160660
-0.127565
-0.086307
-0.035049
0.019689
0.063461
0.086840
0.106482
0.112625
0.102821
0.091270
0.058486
0.007722
-0.037910
-0.083448
-0.120654
-0.145436
-0.164663
-0.169491
-0.157625
-0.129103
-0.103961
-0.046971
-0.000554
0.051189
0.093797
0.118733
0.142305
0.142358
0.131979
0.105039
0.069439
0.028229
-0.021377
-0.060363
-0.098895
-0.129973
-0.157884
-0.157295
-0.147651
-0.129873
-0.093573
-0.050040
0.005271
0.047516
0.094369
0.128292
0.158001
0.163697
0.155349
0.128080
0.090786
0.047117
0.001633
-0.047639
-0.094447
-0.107427
-0.122318
-0.128857
-0.120081
-0.096271
-0.064480
-0.028862
0.002517
0.042883
0.090435
0.113618
0.133078
0.122753
0.113818
0.098679
0.066762
0.021715
-0.021987
-0.075069
-0.127669
-0.151476
-0.175830
-0.186066
-0.176440
-0.158750
-0.124342
-0.063568
-0.027732
0.013956
0.045394
0.079332
0.099769
0.115296
0.109347
0.077148
0.041833
-0.012224
-0.055166
-0.096844
-0.151282
-0.180088
-0.197382
-0.206335
-0.202663
-0.180689
-0.149927
-0.103470
-0.050457
-0.007817
0.038697
0.066283
0.084308
0.061454
0.087152
0.071737
0.036673
-0.024672
-0.070334
-0.118325
-0.160882
-0.201126
-0.223010
-0.242756
-0.201656
-0.178686
-0.136287
-0.089454
-0.045917
0.001818
0.037986
0.063728
0.083166
0.081976
0.067287
0.045037
0.013668
-0.036671
-0.086210
-0.124361
-0.164141
-0.184842
-0.207484
-0.207082
-0.194316
-0.174732
-0.148386
-0.108868
-0.064951
-0.000554
0.038708
0.059674
0.076417
0.088250
0.076956
0.051262
0.023169
-0.026878
-0.072176
-0.116667
-0.162121
-0.198132
-0.206230
-0.218829
-0.213478
-0.192915
-0.151195
-0.116175
-0.066016
-0.019077
0.017999
0.047160
0.070756
0.077192
0.074860
0.060018
0.026802
-0.010676
-0.049844
-0.092518
-0.108712
-0.115881
-0.128352
-0.122283
-0.098237
-0.063724
-0.020853
0.032805
0.110061
0.176213
0.234023
0.297729
0.359697
0.382567
0.413621
0.420224
0.425165
0.418376
0.409710
0.393681
0.370180
0.369323
0.381273
0.428965
0.486485
0.543465
0.596927
0.668002
0.738420
0.803327
0.845181
0.870950
0.893758
0.873190
0.843252
0.807225
0.745914
0.658586
0.539027
0.424193
0.326723
0.239755
0.183135
0.124288
0.079206
0.058187
0.065389
0.106934
0.145275
0.175434
0.218888
0.246391
0.246489
0.235539
0.221139
0.188300
0.134626
0.088833
0.045748
-0.006536
-0.053842
-0.094601
-0.110075
-0.118948
-0.103090
-0.088559
-0.060250
-0.025495
0.023635
0.070774
0.101833
0.130262
0.150190
0.157111
0.144065
0.115956
0.090938
0.032930
-0.000959
-0.041823
-0.089424
-0.128989
-0.154172
-0.158329
-0.157149
-0.144569
-0.105374
-0.060491
-0.010444
0.034778
0.087844
0.114533
0.143165
0.144037
0.124419
0.103173
0.065549
0.028094
-0.022111
-0.066519
-0.105508
-0.140176
-0.166743
-0.175255
-0.166724
-0.131380
-0.097210
-0.048952
0.004075
0.044723
0.083206
0.115890
0.129804
0.136528
0.130580
0.118217
0.086021
0.039210
-0.017993
-0.064359
-0.110079
-0.133191
-0.148017
-0.154557
-0.139305
-0.104315
-0.061140
-0.027775
0.017707
0.055832
0.103293
0.135114
0.154006
0.164032
0.153984
0.136718
0.100129
0.058375
0.009103
-0.032358
-0.065055
-0.104550
-0.120699
-0.121024
-0.107875
-0.094320
-0.063603
-0.020199
0.032404
0.090642
0.128817
0.156836
0.179217
0.189898
0.176675
0.162516
0.131213
0.089959
0.044204
0.006830
-0.034853
-0.057024
-0.095468
-0.098162
-0.094464
-0.058637
-0.026803
0.012678
0.068685
0.120670
0.163722
0.190383
0.221609
0.215577
0.213877
0.190550
0.163556
0.124408
0.072125
0.029405
-0.015134
-0.037778
-0.055282
-0.057680
-0.052132
-0.029347
-0.000802
0.036297
0.093198
0.136146
0.178413
0.219155
0.234063
0.240359
0.241189
0.219161
0.174930
0.136037
0.085272
0.043975
0.012440
-0.020388
-0.047201
-0.060095
-0.045859
-0.018121
0.018771
0.064792
0.107139
0.154686
0.185665
0.218099
0.250490
0.257334
0.251146
0.226231
0.192827
0.143386
0.091716
0.041874
0.004944
-0.033736
-0.057136
-0.068263
-0.061022
-0.024180
0.001747
0.033937
0.086935
0.132202
0.174670
0.198406
0.217323
0.219343
0.222599
0.199563
0.155327
0.116105
0.064282
0.009782
-0.029076
-0.069230
-0.088618
-0.095068
-0.088270
-0.056313
-0.023878
0.006551
0.062537
0.097153
0.129057
0.151202
0.185125
0.185475
0.181457
0.152402
0.122699
0.080291
0.015616
-0.032900
-0.068612
-0.104900
-0.123057
-0.125305
-0.121584
-0.105701
-0.083811
-0.037264
0.020516
0.061975
0.107849
0.129788
0.146818
0.138528
0.135978
0.121009
0.081155
0.029610
-0.023928
-0.056024
-0.097858
-0.121058
-0.155529
-0.159467
-0.150769
-0.128606
-0.094378
-0.051735
-0.008052
0.025566
0.064371
0.103549
0.127832
0.128688
0.126800
0.098912
0.070594
0.026058
-0.023236
-0.070931
-0.113247
-0.145511
-0.173186
-0.167614
-0.160469
-0.148002
-0.123878
-0.081058
-0.013710
0.026260
0.079039
0.100095
0.112356
0.111010
0.107198
0.091549
0.066355
0.027835
-0.032521
-0.073586
-0.114549
-0.151369
-0.166687
-0.166493
-0.160235
-0.142065
-0.108507
-0.068198
-0.017393
0.035438
0.082894
0.116125
0.122694
0.122879
0.120165
0.104333
0.068902
0.025389
-0.022655
-0.070142
-0.115696
-0.142796
-0.159067
-0.176522
-0.165710
-0.135730
-0.108684
-0.064931
-0.011495
0.038896
0.075494
0.115513
0.134393
0.136681
0.121975
0.111627
0.071756
0.027244
-0.021462
-0.076218
-0.105654
-0.133624
-0.157114
-0.158689
-0.149893
-0.132320
-0.107918
-0.054002
-0.008130
0.029858
0.070098
0.104425
0.129170
0.137144
0.134204
0.112160
0.077467
0.035335
-0.017624
-0.063114
-0.095584
-0.131477
-0.142272
-0.158986
-0.159539
-0.145934
-0.078836
-0.047775
0.004285
0.035228
0.080126
0.106684
0.127689
0.140707
0.120394
0.095138
0.068726
0.022430
-0.031392
-0.075175
-0.117587
-0.129056
-0.162214
-0.174325
-0.188274
-0.137168
-0.085177
-0.048525
0.004448
0.045044
0.088682
0.120299
0.132967
0.134320
0.125680
0.094649
0.061772
0.022670
-0.029560
-0.073147
-0.112641
-0.140079
-0.165365
-0.170041
-0.159520
-0.152478
-0.108903
-0.070175
-0.022131
0.028247
0.069376
0.094464
0.107911
0.118944
0.115492
0.096917
0.069005
0.028001
-0.027624
-0.075838
-0.120840
-0.166589
-0.173220
-0.182521
-0.182993
-0.157207
-0.115903
-0.073068
-0.020901
0.031936
0.070467
0.096226
0.116363
0.122272
0.126503
0.093640
0.050665
0.013770
-0.033343
-0.077232
-0.124541
-0.158945
-0.178745
-0.173804
-0.174313
-0.155329
-0.123606
-0.080832
-0.016007
0.027162
0.056578
0.099692
0.122171
0.127783
0.112928
0.077208
0.049718
0.000875
-0.040570
-0.086757
-0.132581
-0.159502
-0.183184
-0.193710
-0.187379
-0.161849
-0.121395
-0.081358
-0.023385
0.014774
0.067882
0.104425
0.119910
0.118550
0.101467
0.080802
0.047616
0.001456
-0.050225
-0.097826
-0.134386
-0.156716
-0.171783
-0.184296
-0.173955
-0.151065
-0.115154
-0.074259
-0.023156
0.016687
0.052103
0.086040
0.104061
0.112397
0.103918
0.077551
0.043428
0.003508
-0.057629
-0.099479
-0.136870
-0.175334
-0.191429
-0.189326
-0.172119
-0.148980
-0.125016
-0.086551
-0.026679
0.021951
0.060227
0.094908
0.107547
0.120788
0.113164
0.093471
0.058435
0.018204
-0.027225
-0.074391
-0.110779
-0.151170
-0.159328
-0.170330
-0.168027
-0.138160
-0.099516
-0.048185
-0.008898
0.068740
0.091815
0.128253
0.149744
0.151064
0.143692
0.126586
0.093714
0.043397
-0.014106
-0.061181
-0.093873
-0.131432
-0.147698
-0.159821
-0.153627
-0.129829
-0.086708
-0.058758
-0.004865
0.044050
0.090920
0.124851
0.149393
0.170787
0.162350
0.135546
0.107170
0.065619
0.025056
-0.024856
-0.064983
-0.104097
-0.110668
-0.117638
-0.111993
-0.091645
-0.066715
-0.033264
0.010830
0.045593
0.091026
0.123810
0.132788
0.123144
0.125495
0.103381
0.064437
0.033562
-0.026759
-0.069603
-0.109988
-0.147128
-0.161341
-0.168534
-0.168436
-0.137408
-0.113846
-0.073415
-0.027682
0.017286
0.058931
0.099239
0.121787
0.124221
0.111342
0.077639
0.042338
-0.011836
-0.067931
-0.104645
-0.150521
-0.180613
-0.196153
-0.200941
-0.192406
-0.175751
-0.143033
-0.113058
-0.042148
0.010477
0.027995
0.063904
0.085136
0.098055
0.077269
0.046595
0.009627
-0.028020
-0.063853
-0.111943
-0.156197
-0.184955
-0.203689
-0.211235
-0.204687
-0.183724
-0.147561
-0.093801
-0.049384
-0.001856
0.034256
0.066314
0.078332
0.088961
0.091696
0.061099
0.023698
-0.010304
-0.070876
-0.114926
-0.151315
-0.184195
-0.206576
-0.209318
-0.207692
-0.183912
-0.151263
-0.109002
-0.060143
-0.007978
0.031967
0.065249
0.084521
0.097514
0.082463
0.052260
0.023314
-0.026193
-0.073066
-0.105460
-0.151635
-0.192803
-0.209258
-0.219018
-0.204454
-0.184405
-0.150433
-0.117731
-0.067496
-0.020549
0.030086
0.058921
0.066129
0.079758
0.075371
0.061015
0.021037
-0.031175
-0.071906
-0.114328
-0.123821
-0.155179
-0.160545
-0.145403
-0.123344
-0.094818
-0.047008
0.015019
0.078296
0.130460
0.187404
0.247674
0.281730
0.309365
0.338317
0.341696
0.346330
0.334995
0.322993
0.300316
0.291918
0.292285
0.303256
0.329475
0.375314
0.446060
0.522184
0.600006
0.676606
0.756780
0.832327
0.879716
0.889625
0.891607
0.889208
0.849197
0.796139
0.724591
0.656508
0.572888
0.476385
0.353080
0.283936
0.221644
0.195472
0.162733
0.147765
0.152134
0.172500
0.200410
0.216865
0.239089
0.269239
0.276400
0.248802
0.217320
0.184428
0.127514
0.071710
0.011427
-0.040741
-0.080042
-0.094029
-0.111384
-0.097110
-0.091216
-0.063662
-0.020437
0.034801
0.069700
0.110098
0.137332
0.156741
0.167742
0.150524
0.124398
0.091176
0.051070
-0.009707
-0.049004
-0.088936
-0.120212
-0.145363
-0.156013
-0.158042
-0.158808
-0.088796
-0.047943
-0.006626
0.024981
0.066803
0.106787
0.122122
0.136611
0.123436
0.100737
0.074812
0.028390
-0.025855
-0.076344
-0.115060
-0.135885
-0.157300
-0.170639
-0.169304
-0.134884
-0.099564
-0.048056
-0.013593
0.040777
0.081893
0.113833
0.134510
0.134085
0.126672
0.098027
0.072278
0.028465
-0.010572
-0.054732
-0.089748
-0.126836
-0.146525
-0.156531
-0.145583
-0.127576
-0.091662
-0.038643
0.014753
0.053719
0.091914
0.127194
0.146977
0.160471
0.136004
0.117104
0.084977
0.051156
0.015136
-0.036820
-0.072757
-0.091588
-0.123718
-0.126896
-0.117385
-0.089801
-0.055853
-0.016566
0.034103
0.086499
0.125186
0.153266
0.168719
0.185666
0.177619
0.156886
0.126311
0.087418
0.034117
-0.008615
-0.047050
-0.067818
-0.093551
-0.107721
-0.090758
-0.071119
-0.047642
-0.004070
0.050504
0.103806
0.145516
0.182707
0.209780
0.206014
0.213297
0.198049
0.165302
0.107964
0.055317
0.012402
-0.009120
-0.049208
-0.072747
-0.077921
-0.064568
-0.041265
0.009405
0.043365
0.089731
0.127144
0.175223
0.217279
0.241649
0.246104
0.238157
0.220558
0.185739
0.137419
0.084899
0.040507
-0.002265
-0.027646
-0.047449
-0.056870
-0.047556
-0.020658
0.000143
0.039778
0.093030
0.147040
0.181661
0.221371
0.240987
0.246125
0.244259
0.222170
0.185131
0.140491
0.094035
0.041433
-0.007086
-0.044207
-0.066063
-0.072566
-0.059532
-0.038303
0.001945
0.039894
0.080785
0.132921
0.169519
0.204627
0.219822
0.214439
0.200011
0.181520
0.160888
0.116269
0.063307
0.016638
-0.027435
-0.072618
-0.097874
-0.100187
-0.086786
-0.055210
-0.025638
-0.000269
0.057322
0.104580
0.139390
0.173196
0.191736
0.191235
0.169697
0.152425
0.117757
0.063090
0.013833
-0.027480
-0.066361
-0.098203
-0.136482
-0.144899
-0.128891
-0.109824
-0.077050
-0.035858
0.003143
0.059814
0.105651
0.135941
0.146624
0.141613
0.136014
0.119313
0.086550
0.036106
-0.022642
-0.070380
-0.114716
-0.150052
-0.166408
-0.173534
-0.178031
-0.130011
-0.087921
-0.047648
-0.013883
0.037968
0.066163
0.093861
0.122646
0.130000
0.111554
0.099765
0.064933
0.024399
-0.028385
-0.083995
-0.131258
-0.160902
-0.168196
-0.175790
-0.171691
-0.160177
-0.121499
-0.087526
-0.031827
0.015492
0.068184
0.101580
0.125838
0.129168
0.112951
0.092706
0.054669
0.019593
-0.035052
-0.095052
-0.130148
-0.156266
-0.182249
-0.183319
-0.170089
-0.150267
-0.117710
-0.077821
-0.024685
0.030425
0.074373
0.098465
0.119155
0.126398
0.121016
0.102223
0.064233
0.019293
-0.022662
-0.069137
-0.119448
-0.159012
-0.180740
-0.188100
-0.175914
-0.140888
-0.106994
-0.071112
-0.018082
0.035980
0.075404
0.099879
0.118787
0.122162
0.112039
0.094905
0.059047
0.013292
-0.030565
-0.069591
-0.112402
-0.149480
-0.162239
-0.170193
-0.161315
-0.156923
-0.134461
-0.062225
-0.004994
0.035522
0.075240
0.110639
0.143788
0.144314
0.129414
0.111958
0.076647
0.021472
-0.030492
-0.077231
-0.115045
-0.152558
-0.182858
-0.179924
-0.177111
-0.160709
-0.116583
-0.053743
-0.016527
0.030356
0.065485
0.094786
0.129947
0.145081
0.137810
0.119994
0.079670
0.029400
-0.011235
-0.070926
-0.112152
-0.138415
-0.164952
-0.172337
-0.168291
-0.147125
-0.116660
-0.072740
-0.024510
0.032877
0.071247
0.104957
0.123706
0.126041
0.106564
0.095534
0.054741
0.007992
-0.032949
-0.090775
-0.117512
-0.136722
-0.163025
-0.172090
-0.170780
-0.158997
-0.116532
-0.072230
-0.024312
0.029246
0.064220
0.089217
0.118605
0.125174
0.110609
0.088922
0.058682
0.011860
-0.034470
-0.085119
-0.123622
-0.158907
-0.183115
-0.193068
-0.181644
-0.160903
-0.126752
-0.085019
-0.035717
0.025309
0.056422
0.084546
0.104085
0.115859
0.101855
0.084451
0.046472
0.001456
-0.051317
-0.112556
-0.146093
-0.173796
-0.197592
-0.200835
-0.199452
-0.186472
-0.119027
-0.054015
-0.015669
0.028508
0.057211
0.089886
0.107227
0.113626
0.102429
0.075337
0.045337
-0.002206
-0.048611
-0.101378
-0.135438
-0.169595
-0.191305
-0.193922
-0.186267
-0.170532
-0.134456
-0.096945
-0.047190
0.018747
0.054853
0.086268
0.107083
0.110404
0.108100
0.080383
0.039538
-0.002753
-0.041322
-0.100222
-0.150696
-0.180015
-0.201498
-0.206135
-0.188341
-0.174676
-0.136814
-0.094386
-0.039151
0.005499
0.046485
0.075802
0.105568
0.111347
0.101348
0.083244
0.051579
0.001431
-0.039972
-0.095224
-0.138931
-0.166032
-0.186204
-0.186795
-0.176063
-0.151687
-0.115845
-0.081257
-0.026978
0.024611
0.059986
0.099355
0.116952
0.129212
0.116020
0.105310
0.071256
0.028927
-0.017798
-0.067759
-0.108950
-0.144949
-0.163219
-0.156188
-0.148142
-0.127523
-0.087080
-0.048105
-0.002063
0.049676
0.091086
0.122658
0.146627
0.137106
0.125282
0.092851
0.091176
0.036921
-0.013565
-0.066594
-0.096720
-0.126785
-0.147861
-0.154669
-0.132464
-0.101315
-0.071889
-0.036539
0.009976
0.061259
0.102776
0.146653
0.178118
0.178340
0.156781
0.137044
0.097667
0.048716
-0.004903
-0.055857
-0.093515
-0.132749
-0.168717
-0.177185
-0.169890
-0.144182
-0.115520
-0.061743
-0.020910
0.042372
0.084899
0.103238
0.120934
0.118483
0.111958
0.091722
0.053740
0.010135
-0.035682
-0.090104
-0.127375
-0.159296
-0.193948
-0.193178
-0.196289
-0.169990
-0.136888
-0.091797
-0.040428
0.004908
0.039339
0.070808
0.089294
0.080696
0.077511
0.063535
0.031124
-0.022504
-0.065230
-0.109984
-0.157663
-0.190085
-0.216114
-0.221827
-0.210761
-0.187664
-0.154625
-0.122534
-0.077370
-0.027647
0.024474
0.064123
0.093188
0.097191
0.096025
0.070798
0.028487
-0.017766
-0.066056
-0.119442
-0.157479
-0.185196
-0.217142
-0.236238
-0.198602
-0.190100
-0.160502
-0.109487
-0.071040
-0.013306
0.017298
0.050528
0.074649
0.073865
0.067320
0.053064
0.020782
-0.033506
-0.077192
-0.122393
-0.158876
-0.198693
-0.222142
-0.213457
-0.217446
-0.187180
-0.144992
-0.106599
-0.071505
-0.012989
0.028200
0.059862
0.074134
0.071072
0.060410
0.041113
0.010615
-0.023437
-0.066772
-0.126875
-0.170295
-0.202252
-0.228066
-0.236117
-0.224940
-0.201719
-0.160466
-0.121942
-0.051181
0.008549
0.057510
0.095728
0.127905
0.143456
0.150227
0.137409
0.121266
0.102809
0.065870
0.021177
0.002987
-0.001585
-0.012297
-0.001812
0.036162
0.087817
0.150355
0.228353
0.317246
0.406585
0.484207
0.556237
0.595328
0.632372
0.646013
0.672416
0.685478
0.690412
0.663909
0.656937
0.638655
0.636698
0.596340
0.572005
0.598785
0.617299
0.622742
0.638746
0.666728
0.678829
0.653859
0.613339
0.570244
0.520119
0.475447
0.400940
0.326307
0.237762
0.158097
0.092930
0.048441
0.003485
-0.027462
-0.049256
-0.050339
-0.039219
-0.004298
0.026645
0.069723
0.105755
0.147952
0.174248
0.188649
0.179666
0.163119
0.144275
0.123318
0.074339
0.021817
-0.029915
-0.076886
-0.113706
-0.131401
-0.141237
-0.139038
-0.124929
-0.097476
-0.047752
-0.003428
0.052861
0.086288
0.105149
0.127269
0.130207
0.125985
0.105338
0.067274
0.020044
-0.020215
-0.066763
-0.113939
-0.144281
-0.160608
-0.162239
-0.168537
-0.134603
-0.101702
-0.063190
-0.019243
0.027149
0.064751
0.099008
0.133481
0.140488
0.138084
0.110809
0.067081
0.025633
-0.029488
-0.076722
-0.119691
-0.153280
-0.169152
-0.165215
-0.161963
-0.132468
-0.101554
-0.049586
0.007017
0.050101
0.084999
0.112123
0.139912
0.132758
0.121002
0.123449
0.092101
0.045468
0.001012
-0.057021
-0.102194
-0.136756
-0.153665
-0.140230
-0.133320
-0.115911
-0.084600
-0.040038
0.004949
0.065980
0.117546
0.143142
0.162440
0.172420
0.168744
0.145556
0.117168
0.075940
0.030232
-0.027760
-0.070333
-0.091090
-0.117943
-0.127330
-0.111938
-0.097574
-0.059650
-0.015048
0.032360
0.079362
0.134570
0.167123
0.187832
0.190961
0.180720
0.160383
0.130265
0.093310
0.043960
-0.003205
-0.042831
-0.070603
-0.076843
-0.075711
-0.076507
-0.066497
-0.026794
0.017538
0.076930
0.119099
0.171516
0.199143
0.224619
0.228840
0.210795
0.188312
0.158894
0.135300
0.103991
0.036239
-0.017311
-0.045089
-0.049527
-0.061915
-0.055065
-0.044921
-0.005309
0.033386
0.087352
0.141901
0.190051
0.217140
0.241087
0.242703
0.231323
0.212883
0.171366
0.130193
0.079383
0.038753
-0.001970
-0.014845
-0.041228
-0.054532
-0.039772
-0.023945
0.008706
0.047610
0.098861
0.139351
0.185623
0.208880
0.218235
0.221904
0.225709
0.211387
0.172320
0.131588
0.083128
0.025508
-0.020231
-0.052237
-0.069400
-0.081192
-0.075845
-0.057818
-0.028653
0.012223
0.063132
0.112228
0.152523
0.181962
0.207018
0.206932
0.195939
0.167792
0.142045
0.098525
0.047661
-0.011057
-0.062855
-0.100169
-0.115726
-0.120044
-0.120763
-0.095118
-0.062994
-0.021794
0.023748
0.062834
0.117794
0.141796
0.161645
0.162652
0.162621
0.134914
0.109898
0.065840
0.005169
-0.046759
-0.093050
-0.123638
-0.146621
-0.160095
-0.157562
-0.143101
-0.123521
-0.059895
-0.008541
0.027778
0.067948
0.106990
0.133971
0.141727
0.132288
0.105180
0.071870
0.024047
-0.019298
-0.067039
-0.115200
-0.150762
-0.167440
-0.191979
-0.180492
-0.154006
-0.115777
-0.076472
-0.031919
0.008816
0.054836
0.093014
0.116457
0.123492
0.120311
0.095882
0.066786
0.014262
-0.030541
-0.076977
-0.117386
-0.154089
-0.181569
-0.187656
-0.177054
-0.150239
-0.118311
-0.068584
-0.019569
0.018353
0.064728
0.089761
0.110575
0.124134
0.123824
0.086420
0.061077
0.025558
-0.031596
-0.083474
-0.127466
-0.177442
-0.171550
-0.180576
-0.178874
-0.150959
-0.120579
-0.067166
-0.030185
0.018175
0.060334
0.102528
0.121808
0.127190
0.113770
0.103908
0.071041
0.022341
-0.029814
-0.067096
-0.125707
-0.157400
-0.171564
-0.177636
-0.165491
-0.141907
-0.113430
-0.073008
-0.024270
0.034536
0.083379
0.115701
0.134820
0.133249
0.128936
0.099115
0.068243
0.018738
-0.028710
-0.066539
-0.109964
-0.152131
-0.168029
-0.166876
-0.168031
-0.151179
-0.114713
-0.069515
-0.021895
0.033647
0.092191
0.116932
0.133290
0.135669
0.121328
0.097856
0.066290
0.026482
-0.019490
-0.064307
-0.126399
-0.145503
-0.157264
-0.163333
-0.161606
-0.140890
-0.109667
-0.071392
-0.026940
0.022174
0.073037
0.108595
0.115780
0.119255
0.100984
0.083550
0.057898
0.021375
-0.024002
-0.064652
-0.118161
-0.148789
-0.176969
-0.181873
-0.165967
-0.133839
-0.110236
-0.075369
-0.031946
0.019227
0.072850
0.101036
0.118133
0.127955
0.119555
0.088811
0.059826
0.016203
-0.027194
-0.074658
-0.117248
-0.155297
-0.168831
-0.180004
-0.175990
-0.156429
-0.126390
-0.080117
-0.049448
0.036882
0.063817
0.087274
0.104487
0.116008
0.117201
0.084974
0.046860
0.009826
-0.042346
-0.088389
-0.136079
-0.170458
-0.194128
-0.196636
-0.181604
-0.160766
-0.120185
-0.074116
-0.023863
0.015423
0.055131
0.084237
0.112491
0.118950
0.101283
0.075221
0.038685
-0.000376
-0.049639
-0.083804
-0.139268
-0.167823
-0.195415
-0.200339
-0.193227
-0.166078
-0.142350
-0.092368
-0.044018
0.004981
0.055566
0.095309
0.121579
0.127779
0.110454
0.074422
0.046837
-0.005172
-0.057488
-0.104627
-0.144960
-0.166116
-0.195579
-0.209695
-0.192384
-0.166960
-0.126953
-0.103688
-0.050713
0.002811
0.048211
0.085042
0.108639
0.114008
0.097996
0.075594
0.039820
0.001497
-0.043622
-0.083879
-0.138758
-0.182975
-0.211848
-0.226271
-0.201971
-0.174399
-0.138420
-0.080234
-0.040151
0.003620
0.045249
0.104647
0.111138
0.117161
0.102546
0.080892
0.045665
0.011791
-0.030597
-0.075128
-0.127395
-0.158623
-0.180506
-0.188949
-0.168781
-0.149557
-0.115322
-0.070860
-0.027414
0.024890
0.081295
0.112175
0.136300
0.154780
0.143000
0.124327
0.091896
0.041321
-0.023970
-0.079291
-0.122542
-0.147110
-0.165522
-0.177254
-0.153908
-0.131093
-0.100873
-0.055786
-0.003244
0.038819
0.089947
0.118310
0.139040
0.145626
0.140041
0.118386
0.082407
0.053065
-0.000280
-0.044882
-0.096355
-0.125173
-0.137398
-0.147095
-0.131508
-0.107352
-0.072689
-0.034901
0.005771
0.051160
0.100208
0.128553
0.134530
0.135264
0.121547
0.099404
0.065896
0.025562
-0.016987
-0.076306
-0.135695
-0.167891
-0.186489
-0.201766
-0.189111
-0.169908
-0.130614
-0.083874
-0.039674
0.007020
0.045764
0.078754
0.102845
0.119443
0.103154
0.064835
0.024838
-0.028300
-0.064737
-0.107929
-0.169685
-0.203965
-0.224541
-0.227396
-0.212930
-0.199946
-0.161028
-0.119175
-0.056951
-0.018979
0.022257
0.048962
0.066885
0.082131
0.075424
0.051344
0.017380
-0.035567
-0.082349
-0.125481
-0.164782
-0.197204
-0.223197
-0.227407
-0.223861
-0.203238
-0.171574
-0.107201
-0.078841
-0.038494
-0.005865
0.029870
0.070037
0.082696
0.066502
0.039897
0.002101
-0.035915
-0.080279
-0.133651
-0.189144
-0.220674
-0.238795
-0.245863
-0.232573
-0.197061
-0.154675
-0.111052
-0.067543
-0.030689
0.016385
0.048949
0.061299
0.071167
0.058964
0.045475
0.011998
-0.032989
-0.081379
-0.129900
-0.171459
-0.204161
-0.229054
-0.240387
-0.227904
-0.205963
-0.164930
-0.121124
-0.077207
-0.040034
0.007338
0.043007
0.057089
0.060209
0.051297
0.025068
0.007053
-0.037083
-0.084649
-0.129569
-0.157450
-0.182251
-0.191115
-0.180578
-0.151414
-0.115206
-0.074353
-0.005662
0.047839
0.102924
0.160385
0.217534
0.259505
0.283299
0.298140
0.308040
0.303541
0.296465
0.276941
0.275349
0.254256
0.258867
0.266584
0.286377
0.330441
0.391213
0.466969
0.550138
0.620922
0.707713
0.793466
0.850525
0.871952
0.873458
0.859558
0.831510
0.776498
0.714559
0.642323
0.570936
0.470166
0.386978
0.304804
0.220316
0.180618
0.162607
0.154386
0.143729
0.161104
0.170030
0.199382
0.234622
0.263249
0.265809
0.241062
0.198626
0.150554
0.101307
0.046560
-0.010057
-0.062349
-0.096683
-0.121861
-0.133171
-0.121886
-0.103249
-0.080651
-0.042259
0.000333
0.044596
0.088474
0.119205
0.139707
0.151879
0.130585
0.109266
0.066584
0.028548
-0.023660
-0.072349
-0.123578
-0.155527
-0.179020
-0.185164
-0.182204
-0.160834
-0.128962
-0.067017
-0.022521
0.017115
0.053008
0.083426
0.106159
0.107267
0.100123
0.072342
0.039905
0.004696
-0.035526
-0.082210
-0.128774
-0.158967
-0.183658
-0.190427
-0.174037
-0.153378
-0.121004
-0.083593
-0.046962
0.007249
0.050645
0.090453
0.109293
0.112853
0.097364
0.080609
0.055202
0.014009
-0.028097
-0.079673
-0.124332
-0.153143
-0.174771
-0.179186
-0.164527
-0.144348
-0.109941
-0.071021
-0.022087
0.032055
0.071043
0.102062
0.119000
0.128717
0.123552
0.096198
0.062185
0.022296
-0.021619
-0.063187
-0.105867
-0.144501
-0.164372
-0.167698
-0.149453
-0.121166
-0.085928
-0.043448
-0.007356
0.058325
0.102005
0.141828
0.162251
0.173278
0.162772
0.134028
0.093675
0.054349
0.017284
-0.033010
-0.080736
-0.110029
-0.135047
-0.140004
-0.130604
-0.109759
-0.070779
-0.019092
0.025218
0.082243
0.122823
0.160493
0.173943
0.187091
0.178860
0.173747
0.126653
0.086604
0.048398
0.000969
-0.043490
-0.074660
-0.094804
-0.094574
-0.092753
-0.070368
-0.035677
0.009422
0.057542
0.095995
0.146106
0.187415
0.207068
0.214316
0.199887
0.189663
0.156237
0.113603
0.058333
0.010415
-0.022708
-0.051263
-0.076484
-0.077419
-0.070464
-0.060391
-0.029951
0.015927
0.066470
0.125392
0.156830
0.202078
0.219967
0.222248
0.205455
0.173819
0.150625
0.116636
0.062826
0.012385
-0.032563
-0.071237
-0.096773
-0.106305
-0.084138
-0.067794
-0.034368
0.007722
0.061316
0.101017
0.133411
0.171165
0.191873
0.200603
0.197733
0.176659
0.138480
0.086794
0.039275
-0.017603
-0.054124
-0.100022
-0.120860
-0.135594
-0.125087
-0.107617
-0.069288
-0.026694
0.023338
0.044717
0.115677
0.145551
0.154114
0.151056
0.142604
0.117874
0.083833
0.043574
0.000207
-0.056224
-0.094393
-0.132130
-0.155541
-0.166088
-0.159682
-0.136462
-0.097804
-0.065515
-0.008894
0.034384
0.072810
0.097253
0.111228
0.116091
0.110293
0.092015
0.045601
0.012156
-0.034037
-0.083847
-0.131570
-0.176971
-0.191876
-0.197914
-0.199180
-0.181422
-0.135288
-0.103656
-0.051719
-0.000534
0.036329
0.066089
0.087253
0.092752
0.082311
0.073213
0.033451
-0.007930
-0.046222
-0.092782
-0.139024
-0.180566
-0.200042
-0.210030
-0.204376
-0.179122
-0.146005
-0.109180
-0.059162
-0.015554
0.033854
0.069020
0.091363
0.093538
0.075447
0.052666
0.026018
-0.015975
-0.067823
-0.123318
-0.160684
-0.190582
-0.202367
-0.206317
-0.199508
-0.180955
-0.145106
-0.098246
-0.056208
-0.013607
0.037320
0.063056
0.085246
0.098067
0.094809
0.073573
0.037205
-0.007147
-0.054713
-0.104057
-0.148811
-0.184038
-0.205920
-0.207787
-0.197604
-0.180477
-0.140592
-0.102295
-0.054009
-0.001913
0.043575
0.086252
0.099073
0.107083
0.094511
0.076834
0.033931
0.004555
-0.040405
-0.091105
-0.127503
-0.172693
-0.188550
-0.199188
-0.199622
-0.181634
-0.142961
-0.099661
-0.063073
-0.008738
0.028785
0.070225
0.094977
0.105904
0.096197
0.079069
0.043512
0.005191
-0.047256
-0.093879
-0.139630
-0.174291
-0.199827
-0.205524
-0.189495
-0.174471
-0.141747
-0.092492
-0.049970
-0.000973
0.043754
0.090276
0.110827
0.108961
0.097807
0.069012
0.034178
-0.017400
-0.063316
-0.109062
-0.147370
-0.184485
-0.212812
-0.199831
-0.204493
-0.170651
-0.135632
-0.097376
-0.050880
-0.013677
0.033025
0.074347
0.100766
0.096504
0.082896
0.065714
0.032229
-0.008740
-0.047290
-0.102907
-0.141605
-0.189546
-0.208470
-0.217931
-0.213001
-0.184493
-0.141697
-0.105148
-0.041324
0.010073
0.041345
0.080278
0.082421
0.095364
0.080930
0.053986
0.016164
-0.030571
-0.061914
-0.110167
-0.160407
-0.193533
-0.210685
-0.217084
-0.218276
-0.191291
-0.155008
-0.116238
-0.073383
-0.033203
0.013223
0.053936
0.074623
0.081579
0.078977
0.051278
0.024858
-0.019959
-0.073040
-0.111805
-0.158595
-0.189037
-0.210931
-0.216040
-0.218425
-0.196735
-0.169025
-0.121227
-0.074882
-0.018744
0.017176
0.054429
0.078449
0.079957
0.072891
0.046307
0.004322
-0.033045
-0.083018
-0.127972
-0.163288
-0.209419
-0.223659
-0.228473
-0.218695
-0.187881
-0.160620
-0.141833
-0.076212
-0.026138
0.011530
0.050924
0.071140
0.078004
0.075467
0.048515
0.003287
-0.040626
-0.082411
-0.132108
-0.174048
-0.212178
-0.223331
-0.226679
-0.223301
-0.204733
-0.158032
-0.123941
-0.071982
-0.031116
0.009064
0.048930
0.067654
0.077834
0.060384
0.040937
0.009526
-0.025900
-0.073191
-0.125998
-0.173006
-0.215583
-0.235824
-0.237921
-0.227120
-0.192911
-0.172446
-0.128034
-0.072362
-0.015502
0.022918
0.065221
0.078773
0.088600
0.089314
0.068985
0.021155
-0.015190
-0.058046
-0.102414
-0.145990
-0.175186
-0.188621
-0.200030
-0.203764
-0.174764
-0.136407
-0.100353
-0.046950
-0.001208
0.046520
0.088869
0.097690
0.104159
0.109451
0.078360
0.043161
0.006981
-0.055213
-0.107765
-0.145116
-0.176530
-0.200172
-0.208805
-0.204445
-0.189538
-0.135763
-0.082257
-0.007815
0.035019
0.069876
0.100241
0.126325
0.130062
0.125351
0.097058
0.068696
0.031996
-0.015519
-0.070834
-0.116259
-0.157522
-0.185058
-0.187754
-0.198691
-0.171740
-0.145812
-0.113876
-0.044285
0.001771
0.034210
0.084154
0.098190
0.110166
0.090849
0.064855
0.025113
-0.024562
-0.083546
-0.129078
-0.168400
-0.197363
-0.210504
-0.222405
-0.226179
-0.203068
-0.166610
-0.130709
-0.084150
-0.027567
0.006805
0.034810
0.055270
0.053858
0.058044
0.040295
-0.003902
-0.051270
-0.098605
-0.146176
-0.190547
-0.229696
-0.234171
-0.242949
-0.243001
-0.221361
-0.190845
-0.156260
-0.109533
-0.059884
-0.018195
0.026211
0.038708
0.044837
0.044671
0.027132
-0.011584
-0.054667
-0.102367
-0.150410
-0.194895
-0.235639
-0.245016
-0.249993
-0.250846
-0.226694
-0.195710
-0.159880
-0.117451
-0.070094
-0.020655
0.025290
0.036092
0.048897
0.045772
0.018774
-0.016764
-0.058224
-0.107704
-0.157383
-0.195157
-0.232040
-0.253625
-0.259772
-0.254700
-0.230991
-0.197490
-0.150830
-0.100152
-0.064247
-0.026084
0.020764
0.030166
0.036989
0.043679
0.017314
-0.015694
-0.056120
-0.105598
-0.158167
-0.198624
-0.242318
-0.262673
-0.270235
-0.265392
-0.244106
-0.203865
-0.157802
-0.112060
-0.060168
-0.014053
0.018770
0.045010
0.056801
0.066661
0.054822
0.033174
-0.003560
-0.029569
-0.063459
-0.091979
-0.102775
-0.122583
-0.113554
-0.091224
-0.041114
0.009570
0.081820
0.148719
0.240332
0.318626
0.377626
0.434024
0.470258
0.500682
0.508648
0.505477
0.492674
0.476274
0.479137
0.479813
0.474863
0.487609
0.511062
0.547855
0.584284
0.607139
0.655004
0.703402
0.723563
0.742891
0.755268
0.759498
0.724247
0.640214
0.547014
0.455649
0.354482
0.263817
0.174467
0.085408
0.008953
-0.028315
-0.049142
-0.045753
-0.021367
0.002410
0.022992
0.056461
0.100583
0.124058
0.151608
0.166452
0.168682
0.157933
0.135544
0.095378
0.045739
-0.001903
-0.052770
-0.103132
-0.147247
-0.171515
-0.177025
-0.172580
-0.152004
-0.126776
-0.080079
-0.042880
0.010782
0.054066
0.091120
0.105745
0.111481
0.104455
0.073620
0.045375
0.001920
-0.055719
-0.105682
-0.154939
-0.190321
-0.206534
-0.214272
-0.197712
-0.177577
-0.148868
-0.103680
-0.056918
-0.009562
0.030097
0.068317
0.092944
0.093578
0.089670
0.066070
0.038389
-0.006163
-0.054249
-0.095010
-0.140049
-0.177469
-0.208955
-0.220754
-0.205214
-0.181242
-0.138657
-0.089215
-0.044629
-0.012958
0.037496
0.076985
0.099921
0.110324
0.102042
0.073636
0.034011
-0.006842
-0.052817
-0.097401
-0.127217
-0.161978
-0.186203
-0.182562
-0.173946
-0.152230
-0.120221
-0.070393
-0.026854
0.020340
0.066376
0.094209
0.117788
0.133260
0.125630
0.103941
0.058526
0.024470
-0.021321
-0.073879
-0.117674
-0.146817
-0.164341
-0.166260
-0.168403
-0.145310
-0.111160
-0.073050
-0.030728
0.049423
0.097299
0.135474
0.152879
0.159341
0.155591
0.132830
0.098637
0.059461
0.012872
-0.032460
-0.075194
-0.107903
-0.127830
-0.134668
-0.129889
-0.107642
-0.066689
-0.023238
0.023644
0.071072
0.116003
0.144453
0.159249
0.168717
0.185406
0.163610
0.123859
0.091837
0.041777
0.000425
-0.045819
-0.085246
-0.100878
-0.101723
-0.098507
-0.076052
-0.054414
-0.003097
0.047409
0.094995
0.138142
0.179597
0.199944
0.211884
0.201457
0.180889
0.148300
0.104451
0.054337
0.011675
-0.038440
-0.079475
-0.107449
-0.106651
-0.094444
-0.079903
-0.042461
0.002941
0.053236
0.087314
0.129205
0.168574
0.188710
0.214823
0.204305
0.173716
0.141310
0.099602
0.039521
-0.003892
-0.047023
-0.074464
-0.106007
-0.117405
-0.122025
-0.103928
-0.071892
-0.018701
0.029398
0.080730
0.124216
0.149623
0.170850
0.171634
0.166272
0.140732
0.102552
0.059344
-0.008858
-0.027929
-0.073219
-0.113630
-0.139108
-0.152394
-0.157495
-0.140158
-0.103915
-0.044255
0.003574
0.044198
0.074730
0.102588
0.129237
0.144575
0.130939
0.101040
0.061370
0.014368
-0.029492
-0.080727
-0.124627
-0.158998
-0.181457
-0.187985
-0.183105
-0.161118
-0.123719
-0.091099
-0.047299
-0.003783
0.042790
0.071711
0.098044
0.095912
0.085465
0.069338
0.040452
-0.007365
-0.059563
-0.110915
-0.137577
-0.175685
-0.213534
-0.211786
-0.203962
-0.176019
-0.140263
-0.111354
-0.069827
-0.007877
0.018245
0.060696
0.080921
0.093606
0.089685
0.059346
0.020273
-0.022372
-0.066879
-0.116502
-0.163135
-0.190465
-0.224126
-0.232283
-0.223784
-0.197151
-0.167050
-0.124209
-0.066141
-0.020055
0.025354
0.062916
0.088325
0.087233
0.079637
0.056106
0.027546
-0.016827
-0.066408
-0.112498
-0.151041
-0.182706
-0.207650
-0.221449
-0.202206
-0.165238
-0.155528
-0.112759
-0.051359
-0.007325
0.026767
0.062290
0.082765
0.093595
0.079590
0.059790
0.031183
-0.016667
-0.059113
-0.103638
-0.143814
-0.178898
-0.209035
-0.221518
-0.200303
-0.187770
-0.159526
-0.120898
-0.076144
-0.032570
0.029119
0.070661
0.104304
0.107795
0.099641
0.074242
0.038143
-0.006401
-0.056201
-0.098527
-0.137950
-0.168281
-0.192218
-0.201070
-0.184721
-0.163020
-0.128755
-0.095735
-0.049078
0.000820
0.051399
0.077514
0.100126
0.104025
0.092495
0.074617
0.033323
-0.008434
-0.054496
-0.097753
-0.149050
-0.180063
-0.214026
-0.226271
-0.208392
-0.188211
-0.154441
-0.105707
-0.060106
-0.004123
0.041701
0.075565
0.096977
0.106020
0.090446
0.077160
0.041362
-0.006630
-0.054268
-0.094208
-0.143316
-0.182268
-0.201714
-0.206917
-0.206188
-0.191475
-0.159810
-0.114059
-0.066564
-0.023161
0.027232
0.058400
0.086457
0.095376
0.098294
0.077846
0.034719
-0.011592
-0.061170
-0.115628
-0.158613
-0.201348
-0.224491
-0.214557
-0.203914
-0.187646
-0.157437
-0.107557
-0.056504
-0.011303
0.029289
0.063609
0.088961
0.089504
0.086729
0.058079
0.023670
-0.012734
-0.058452
-0.106412
-0.161049
-0.201946
-0.238631
-0.228627
-0.206385
-0.185971
-0.153387
-0.106618
-0.063638
-0.024787
0.025417
0.062783
0.078289
0.077410
0.073508
0.061266
0.020123
-0.023466
-0.071618
-0.111793
-0.152556
-0.189220
-0.228441
-0.227008
-0.222435
-0.198477
-0.171931
-0.117532
-0.072777
-0.030169
0.013492
0.041388
0.065247
0.081661
0.071794
0.048407
0.016265
-0.025625
-0.069542
-0.118041
-0.160105
-0.199487
-0.231380
-0.230097
-0.224924
-0.199799
-0.168674
-0.125047
-0.077243
-0.028587
0.026704
0.046254
0.063911
0.071521
0.058767
0.041334
0.020988
-0.017647
-0.073026
-0.127200
-0.168519
-0.195915
-0.217278
-0.216249
-0.205641
-0.187570
-0.149815
-0.107750
-0.056626
-0.008410
0.031845
0.063639
0.091170
0.092867
0.090614
0.072828
0.038232
-0.003151
-0.053938
-0.091982
-0.125341
-0.156246
-0.188271
-0.198797
-0.191882
-0.162009
-0.122689
-0.080512
-0.028778
0.008944
0.053308
0.082655
0.117608
0.119848
0.115979
0.096550
0.054491
0.006279
-0.044060
-0.092235
-0.142935
-0.179360
-0.203953
-0.175863
-0.181392
-0.159888
-0.115943
-0.074903
-0.018278
0.032458
0.079730
0.108851
0.134646
0.137199
0.133841
0.107431
0.069672
0.028261
-0.022401
-0.070489
-0.123697
-0.159826
-0.182203
-0.184874
-0.173445
-0.166327
-0.134083
-0.098959
-0.058642
-0.003106
0.030354
0.066786
0.094911
0.090130
0.082722
0.062560
0.023076
-0.015102
-0.061850
-0.107052
-0.151529
-0.183772
-0.209168
-0.214451
-0.214076
-0.198857
-0.159307
-0.121457
-0.077693
-0.038179
0.000460
0.031892
0.055414
0.059341
0.058163
0.027881
-0.011552
-0.057087
-0.094215
-0.142860
-0.196771
-0.230517
-0.248087
-0.253630
-0.241477
-0.222400
-0.181372
-0.139983
-0.095584
-0.051129
-0.000035
0.036304
0.052922
0.065982
0.052808
0.027926
-0.002847
-0.052358
-0.102622
-0.142177
-0.186713
-0.224278
-0.253552
-0.256468
-0.242129
-0.222513
-0.184965
-0.137266
-0.096557
-0.055782
-0.021718
0.043224
0.059919
0.059430
0.048896
0.041041
0.003088
-0.041173
-0.093187
-0.136846
-0.177601
-0.216158
-0.243517
-0.257075
-0.256385
-0.237531
-0.198488
-0.148242
-0.102300
-0.042334
-0.010771
0.020817
0.047660
0.056771
0.048767
0.035381
-0.007921
-0.056871
-0.104641
-0.156099
-0.190632
-0.223754
-0.253524
-0.254381
-0.253882
-0.241046
-0.204815
-0.162764
-0.116034
-0.047238
0.006213
0.048422
0.085813
0.094395
0.104709
0.104280
0.079091
0.050542
0.027997
-0.014418
-0.051420
-0.061493
-0.065693
-0.062200
-0.028734
0.015652
0.082577
0.159003
0.235343
0.309912
0.384289
0.451332
0.510473
0.551501
0.576978
0.600122
0.591922
0.591799
0.581272
0.569853
0.553468
0.548772
0.547558
0.555350
0.557059
0.582990
0.619319
0.631702
0.657901
0.691359
0.692836
0.680416
0.642282
0.585024
0.524125
0.462492
0.377713
0.278916
0.178439
0.090834
0.036229
-0.012008
-0.040982
-0.056657
-0.061075
-0.053485
-0.033087
0.005553
0.055935
0.085696
0.115601
0.151483
0.166952
0.170978
0.156018
0.132980
0.098688
0.064391
0.015931
-0.040216
-0.088288
-0.132499
-0.168252
-0.170799
-0.162990
-0.144167
-0.114205
-0.072518
-0.037027
0.004358
0.059213
0.076292
0.122599
0.121368
0.111553
0.089278
0.046782
0.009818
-0.047418
-0.099950
-0.138165
-0.163928
-0.192094
-0.190839
-0.182306
-0.169996
-0.133088
-0.096027
-0.046834
-0.005159
0.036198
0.074010
0.102027
0.109565
0.103431
0.079579
0.047522
0.004485
-0.041316
-0.093171
-0.126350
-0.157368
-0.192668
-0.197220
-0.187102
-0.166044
-0.126355
-0.087179
-0.028662
0.019441
0.066563
0.088999
0.112065
0.121994
0.114123
0.088912
0.050616
0.015975
-0.035533
-0.071043
-0.115079
-0.147886
-0.173425
-0.183954
-0.179522
-0.158412
-0.122752
-0.071728
-0.016143
0.027553
0.066353
0.106906
0.138736
0.150340
0.147158
0.115426
0.080755
0.033074
-0.005186
-0.059184
-0.094582
-0.125606
-0.142731
-0.154668
-0.142132
-0.119807
-0.075462
-0.035396
0.017680
0.071732
0.110463
0.144845
0.164167
0.171606
0.163687
0.158566
0.112544
0.065090
0.014553
-0.028111
-0.061461
-0.081894
-0.108495
-0.114575
-0.112378
-0.094277
-0.049502
0.000348
0.046441
0.089627
0.132921
0.170055
0.197512
0.208679
0.203309
0.185816
0.152298
0.101658
0.059584
0.012083
-0.025754
-0.071559
-0.089605
-0.083355
-0.074409
-0.060037
-0.030394
0.025308
0.073499
0.119162
0.167804
0.188571
0.201278
0.208141
0.210725
0.189435
0.159958
0.114459
0.062727
0.020318
-0.014928
-0.051596
-0.075811
-0.086866
-0.073285
-0.055253
-0.025748
0.016219
0.068846
0.119558
0.157443
0.190384
0.218070
0.214117
0.197955
0.181321
0.146614
0.108753
0.051633
0.006677
-0.036117
-0.072471
-0.096982
-0.103464
-0.107379
-0.100813
-0.042604
0.007112
0.043329
0.089016
0.126379
0.149728
0.181870
0.181737
0.184936
0.171907
0.131605
0.096231
0.040801
-0.021596
-0.069394
-0.111042
-0.125750
-0.137842
-0.137045
-0.118389
-0.089537
-0.040362
0.011687
0.058281
0.089205
0.127719
0.143197
0.154330
0.148209
0.122913
0.082468
0.027734
-0.020817
-0.064134
-0.104080
-0.143177
-0.171044
-0.176804
-0.174203
-0.153716
-0.115013
-0.077737
-0.040482
0.000276
0.060283
0.088013
0.107600
0.116197
0.103648
0.087898
0.058010
0.013960
-0.031223
-0.080366
-0.133580
-0.168381
-0.187744
-0.191487
-0.187966
-0.168217
-0.135583
-0.092174
-0.051035
-0.002596
0.043863
0.065877
0.089289
0.107262
0.094966
0.074951
0.035328
-0.010550
-0.046376
-0.091424
-0.142103
-0.181241
-0.207076
-0.216785
-0.196726
-0.171190
-0.137437
-0.099812
-0.047231
-0.004895
0.045541
0.066801
0.090827
0.110140
0.098773
0.070732
0.036513
0.003544
-0.035386
-0.095125
-0.146326
-0.194659
-0.203219
-0.201523
-0.191989
-0.163731
-0.132256
-0.095632
-0.044257
-0.005519
0.036862
0.092786
0.110955
0.112218
0.102962
0.089166
0.051889
0.005075
-0.046717
-0.092173
-0.128860
-0.156408
-0.180163
-0.196954
-0.189146
-0.163638
-0.120557
-0.078957
-0.028034
0.015155
0.043969
0.079737
0.097412
0.110252
0.111535
0.107854
0.060440
0.011524
-0.031694
-0.074714
-0.116386
-0.146792
-0.167780
-0.185062
-0.179707
-0.165152
-0.134581
-0.085237
-0.034652
0.018599
0.053909
0.081836
0.109357
0.121923
0.114157
0.089474
0.058247
0.006137
-0.034400
-0.075334
-0.120305
-0.156860
-0.186402
-0.185935
-0.171572
-0.159076
-0.125682
-0.084901
-0.034916
0.016469
0.057348
0.091385
0.102352
0.122360
0.112841
0.084837
0.041463
0.005149
-0.048744
-0.094404
-0.135357
-0.159390
-0.182005
-0.202099
-0.195794
-0.166483
-0.138531
-0.093144
-0.055115
0.004927
0.048198
0.099581
0.110321
0.123180
0.099628
0.079571
0.051996
0.017503
-0.035635
-0.087056
-0.129450
-0.158369
-0.181951
-0.199529
-0.187722
-0.175182
-0.142111
-0.098426
-0.042014
0.002273
0.037437
0.068194
0.095328
0.106789
0.098442
0.078603
0.045743
0.000561
-0.051756
-0.093729
-0.132431
-0.173014
-0.188093
-0.202940
-0.191330
-0.175484
-0.140938
-0.095330
-0.050736
-0.006985
0.036072
0.074282
0.102879
0.114240
0.103743
0.081291
0.046500
-0.001075
-0.053425
-0.098017
-0.142767
-0.173074
-0.206330
-0.214734
-0.195395
-0.185938
-0.142727
-0.101716
-0.050647
-0.007304
0.029669
0.066700
0.077970
0.102717
0.092192
0.068960
0.034849
-0.002773
-0.054488
-0.101418
-0.153679
-0.195647
-0.186909
-0.202031
-0.206480
-0.180129
-0.150427
-0.110414
-0.058447
-0.015833
0.033254
0.064111
0.089228
0.099169
0.089192
0.074017
0.044831
-0.006638
-0.054946
-0.105216
-0.153990
-0.189038
-0.183043
-0.200326
-0.201274
-0.180452
-0.141429
-0.090980
-0.044630
0.003574
0.052916
0.079410
0.101768
0.114369
0.109533
0.098217
0.059229
0.004355
-0.041760
-0.073994
-0.114211
-0.148037
-0.169962
-0.173314
-0.158410
-0.137405
-0.104141
-0.064328
-0.008411
0.031326
0.069825
0.103693
0.119558
0.137027
0.133911
0.105034
0.067681
0.023225
-0.032478
-0.069709
-0.116332
-0.149685
-0.161753
-0.165443
-0.157359
-0.124383
-0.084742
-0.040359
0.010662
0.051352
0.092989
0.127149
0.155056
0.174753
0.164708
0.135928
0.098246
0.049668
-0.003753
-0.055664
-0.103749
-0.144008
-0.173693
-0.188985
-0.180069
-0.158702
-0.130143
-0.084725
-0.027753
0.010333
0.053535
0.087289
0.098661
0.119166
0.105461
0.088355
0.054459
0.006905
-0.057962
-0.089820
-0.129050
-0.178851
-0.198452
-0.218417
-0.204745
-0.177418
-0.147014
-0.115403
-0.070470
-0.022603
0.019015
0.050436
0.069572
0.083197
0.076044
0.044179
0.008859
-0.026153
-0.077393
-0.122022
-0.166078
-0.204570
-0.225162
-0.231617
-0.228467
-0.209642
-0.168528
-0.122573
-0.076954
-0.026823
0.009239
0.040960
0.069638
0.079319
0.075709
0.053448
0.016051
-0.020241
-0.070960
-0.116306
-0.158366
-0.195089
-0.217467
-0.230682
-0.228176
-0.213089
-0.173168
-0.127306
-0.080424
-0.036256
0.010501
0.047732
0.064960
0.073075
0.074372
0.045814
0.024777
-0.022203
-0.070692
-0.121632
-0.169642
-0.203498
-0.218107
-0.229757
-0.218670
-0.202575
-0.184556
-0.134759
-0.092454
-0.041761
-0.003426
0.042458
0.065193
0.079515
0.060747
0.042702
0.007474
-0.037902
-0.087684
-0.126952
-0.174445
-0.213165
-0.234048
-0.249201
-0.241031
-0.212176
-0.178267
-0.128691
-0.069696
-0.024196
0.020696
0.071450
0.104813
0.123213
0.136283
0.125435
0.110548
0.087033
0.051343
0.007911
-0.024892
-0.028089
-0.024195
-0.026706
0.009908
0.060939
0.117414
0.197007
0.279232
0.354140
0.435889
0.505047
0.559596
0.595992
0.614712
0.632161
0.650556
0.637858
0.631956
0.618443
0.608136
0.601249
0.594372
0.575861
0.582543
0.604833
0.615971
0.637099
0.658650
0.687882
0.695851
0.663112
0.616855
0.562302
0.498410
0.434571
0.351907
0.256674
0.166034
0.103171
0.046251
0.009159
-0.024639
-0.035844
-0.043082
-0.038515
-0.019926
0.027198
0.058124
0.103065
0.131366
0.158288
0.175720
0.186079
0.178662
0.155782
0.116977
0.057047
0.015425
-0.039329
-0.086585
-0.125440
-0.152022
-0.167517
-0.151958
-0.126327
-0.097385
-0.060924
-0.015293
0.029802
0.066793
0.103933
0.121685
0.135543
0.133278
0.109181
0.079897
0.026183
-0.017757
-0.071251
-0.119273
-0.154594
-0.171292
-0.187393
-0.181516
-0.153508
-0.122078
-0.070251
-0.031926
0.010782
0.062386
0.093001
0.114452
0.132114
0.126485
0.104539
0.068074
0.019921
-0.031170
-0.069573
-0.107028
-0.150813
-0.168978
-0.179144
-0.169805
-0.145577
-0.121430
-0.074222
-0.027930
0.017988
0.055837
0.094702
0.126187
0.138002
0.126254
0.108611
0.071691
0.037528
-0.012242
-0.063533
-0.091803
-0.121681
-0.144158
-0.142039
-0.140918
-0.117926
-0.092120
-0.050319
-0.005616
0.048461
0.084852
0.122925
0.153452
0.169259
0.160599
0.135457
0.095559
0.051397
0.010100
-0.047832
-0.081918
-0.110153
-0.130433
-0.132515
-0.112920
-0.099704
-0.070021
-0.013312
0.030010
0.066534
0.117406
0.143943
0.171547
0.184539
0.174347
0.153825
0.127856
0.086257
0.042288
0.000950
-0.038637
-0.072030
-0.098524
-0.105124
-0.090151
-0.062341
-0.033899
0.009419
0.056265
0.103548
0.139378
0.187921
0.207950
0.229340
0.212376
0.186958
0.157547
0.114171
0.071568
0.035508
-0.014414
-0.053375
-0.060998
-0.074098
-0.062658
-0.048544
-0.021398
0.032381
0.075672
0.125230
0.170376
0.195231
0.211733
0.229092
0.226324
0.212019
0.169930
0.130352
0.088294
0.031353
-0.007923
-0.041209
-0.061235
-0.075661
-0.074141
-0.053748
-0.019908
0.030475
0.076051
0.114978
0.158636
0.187973
0.207297
0.217344
0.210026
0.189954
0.155719
0.121581
0.067024
0.019602
-0.017909
-0.045243
-0.092467
-0.104447
-0.106519
-0.074721
-0.032607
-0.003039
0.044971
0.098207
0.134212
0.170670
0.183476
0.192164
0.180928
0.151259
0.123400
0.083313
0.047711
-0.004034
-0.051260
-0.090218
-0.119929
-0.129383
-0.118652
-0.109118
-0.071354
-0.026639
0.021468
0.056296
0.086852
0.120898
0.138041
0.151385
0.148486
0.127285
0.084818
0.038035
-0.007160
-0.058062
-0.097787
-0.127191
-0.157220
-0.163131
-0.156126
-0.136366
-0.104604
-0.062592
-0.025014
0.032403
0.066421
0.089740
0.113099
0.123591
0.120219
0.098089
0.063757
0.013595
-0.038313
-0.089081
-0.133792
-0.161452
-0.176665
-0.183525
-0.181473
-0.166156
-0.126495
-0.077056
-0.039723
0.009985
0.051766
0.090856
0.110344
0.116397
0.114448
0.080440
0.047616
0.001042
-0.039179
-0.091794
-0.130754
-0.168162
-0.195635
-0.198255
-0.186290
-0.168622
-0.138007
-0.086552
-0.037286
-0.000004
0.042727
0.081004
0.110461
0.117731
0.122660
0.095261
0.064799
0.013781
-0.032377
-0.080592
-0.124317
-0.157385
-0.182341
-0.191695
-0.178916
-0.162696
-0.135429
-0.088550
-0.039070
0.006773
0.051790
0.094798
0.118873
0.120078
0.112546
0.093528
0.063865
0.025882
-0.019883
-0.071805
-0.123129
-0.143337
-0.171599
-0.175603
-0.169186
-0.144047
-0.116032
-0.071612
-0.025659
0.021453
0.058598
0.082017
0.108848
0.124441
0.115525
0.104000
0.069549
0.026390
-0.023867
-0.073611
-0.123255
-0.149149
-0.181137
-0.191893
-0.176987
-0.145439
-0.119157
-0.073213
-0.027532
0.017078
0.072030
0.111748
0.136924
0.134512
0.130226
0.097125
0.063771
0.015463
-0.032987
-0.074924
-0.116875
-0.154481
-0.171765
-0.181987
-0.175588
-0.156163
-0.111474
-0.070934
-0.026720
0.014361
0.066623
0.099892
0.118636
0.121859
0.115132
0.084256
0.050545
0.013319
-0.026758
-0.072282
-0.103805
-0.140710
-0.176294
-0.196216
-0.183774
-0.158534
-0.120449
-0.079069
-0.026428
0.013573
0.046478
0.080331
0.103858
0.116790
0.115603
0.096876
0.059632
0.013764
-0.034685
-0.077293
-0.121584
-0.154985
-0.183665
-0.191529
-0.196237
-0.168592
-0.136620
-0.099471
-0.041306
0.002294
0.050526
0.091429
0.108878
0.114188
0.112439
0.076716
0.054142
0.006620
-0.033499
-0.077971
-0.129248
-0.158430
-0.186878
-0.207180
-0.200128
-0.169737
-0.134060
-0.105212
-0.052477
0.001825
0.038327
0.076854
0.097103
0.111901
0.111514
0.081704
0.050248
-0.000425
-0.040686
-0.088460
-0.133834
-0.167958
-0.189937
-0.207751
-0.203071
-0.179062
-0.135162
-0.099837
-0.047105
-0.008892
0.031437
0.065888
0.091387
0.107226
0.092449
0.070807
0.034466
-0.017792
-0.049734
-0.089365
-0.137405
-0.168311
-0.196354
-0.203505
-0.199353
-0.184856
-0.151505
-0.104450
-0.051185
-0.002059
0.039517
0.069152
0.097645
0.106169
0.099151
0.062715
0.032047
-0.005458
-0.042208
-0.094615
-0.136672
-0.168120
-0.200056
-0.213180
-0.220671
-0.202036
-0.141907
-0.096219
-0.052450
-0.000910
0.058638
0.082950
0.104891
0.104812
0.094605
0.077954
0.046221
0.001915
-0.044370
-0.086406
-0.129461
-0.162336
-0.189892
-0.184744
-0.181824
-0.158189
-0.119846
-0.077236
-0.028449
0.023848
0.063278
0.095300
0.118376
0.132594
0.133910
0.110351
0.083740
0.028272
-0.010734
-0.052644
-0.100384
-0.135992
-0.157012
-0.168191
-0.162487
-0.139650
-0.106306
-0.076673
-0.024599
0.009699
0.050194
0.081559
0.105885
0.123632
0.135889
0.123808
0.085288
0.049499
0.008556
-0.045722
-0.078718
-0.115566
-0.136632
-0.151254
-0.142646
-0.117602
-0.084014
-0.042285
0.008900
0.047727
0.089611
0.111578
0.128081
0.127152
0.128206
0.112781
0.067293
0.024843
-0.024620
-0.080368
-0.114662
-0.146142
-0.181838
-0.187527
-0.185435
-0.150956
-0.121312
-0.087657
-0.038771
0.004403
0.050770
0.080733
0.094421
0.102146
0.097228
0.077232
0.037968
-0.008753
-0.053220
-0.094994
-0.131606
-0.178051
-0.207044
-0.216147
-0.216569
-0.197038
-0.163518
-0.116189
-0.065475
-0.010048
0.028927
0.066407
0.078992
0.076843
0.071353
0.047351
0.016312
-0.026563
-0.083097
-0.126867
-0.164885
-0.199891
-0.228442
-0.227860
-0.222910
-0.198145
-0.171098
-0.134302
-0.075622
-0.027007
0.011704
0.049910
0.075539
0.092004
0.083266
0.049283
0.012538
-0.028982
-0.082731
-0.135095
-0.166099
-0.202390
-0.220857
-0.233024
-0.218643
-0.200056
-0.171805
-0.121230
-0.075219
-0.037637
0.007622
0.050327
0.069068
0.073387
0.065382
0.052334
0.026233
-0.008266
-0.064673
-0.110651
-0.151153
-0.188786
-0.219500
-0.219927
-0.213666
-0.197646
-0.167881
-0.125886
-0.081047
-0.038767
0.006366
0.035108
0.053833
0.066456
0.069138
0.035570
0.001356
-0.042086
-0.084641
-0.133042
-0.168500
-0.186877
-0.199427
-0.191877
-0.172990
-0.130206
-0.094299
-0.042824
0.019549
0.085542
0.135122
0.179057
0.193841
0.226584
0.246036
0.238283
0.236729
0.217074
0.189902
0.168773
0.165668
0.168982
0.175051
0.198676
0.224772
0.270770
0.327690
0.410004
0.488914
0.581497
0.662225
0.737564
0.801211
0.843433
0.862041
0.835869
0.802819
0.767491
0.704671
0.641344
0.591204
0.522222
0.472284
0.405466
0.340727
0.303719
0.279187
0.279306
0.288757
0.295700
0.280562
0.279124
0.281546
0.274633
0.251802
0.225153
0.185352
0.140416
0.078616
0.017766
-0.035926
-0.082213
-0.102972
-0.112411
-0.108683
-0.086887
-0.054465
-0.015132
0.029899
0.062026
0.097916
0.130086
0.153718
0.160876
0.154991
0.126910
0.091844
0.052199
-0.002274
-0.051769
-0.102363
-0.143396
-0.159002
-0.170371
-0.163311
-0.146374
-0.114827
-0.077640
-0.028002
0.017622
0.052447
0.085426
0.111239
0.120275
0.128923
0.107338
0.075478
0.035663
-0.017990
-0.065144
-0.114008
-0.144763
-0.168628
-0.176951
-0.175142
-0.152309
-0.111374
-0.075018
-0.032474
0.024574
0.066944
0.098651
0.128160
0.132927
0.120023
0.103200
0.067326
0.028464
-0.022560
-0.065576
-0.107002
-0.147643
-0.163244
-0.179936
-0.169333
-0.141432
-0.101638
-0.061987
-0.017915
0.033869
0.083211
0.131087
0.155924
0.152843
0.149566
0.122390
0.100935
0.059805
-0.001877
-0.045840
-0.091973
-0.129505
-0.150879
-0.160337
-0.142567
-0.120694
-0.085701
-0.047076
-0.000860
0.051173
0.095188
0.140463
0.168898
0.177137
0.176288
0.147704
0.113725
0.076805
0.019974
-0.018567
-0.044586
-0.078675
-0.110312
-0.119844
-0.124698
-0.106055
-0.067202
-0.019197
0.029609
0.081743
0.127850
0.164584
0.190425
0.206533
0.196818
0.186080
0.158312
0.121482
0.062162
0.015047
-0.022414
-0.050138
-0.082035
-0.086507
-0.080411
-0.052479
-0.019991
0.028137
0.083018
0.125910
0.171697
0.202163
0.222258
0.230414
0.225608
0.193155
0.164346
0.125678
0.087802
0.044318
0.011647
-0.024141
-0.054079
-0.069875
-0.060905
-0.040222
0.005201
0.040199
0.105637
0.139987
0.180860
0.215241
0.239188
0.244550
0.239458
0.206991
0.178417
0.138550
0.077532
0.027433
-0.010978
-0.047162
-0.062079
-0.070578
-0.082004
-0.054982
-0.009147
0.026226
0.067462
0.117737
0.163490
0.196666
0.214464
0.211174
0.212478
0.189648
0.163540
0.112313
0.052531
0.015678
-0.028318
-0.073317
-0.088907
-0.107082
-0.100565
-0.086040
-0.051813
-0.001978
0.053905
0.094125
0.134135
0.165718
0.184623
0.190310
0.183717
0.154493
0.117788
0.081015
0.027001
-0.024536
-0.068827
-0.111581
-0.131437
-0.143410
-0.147251
-0.124026
-0.094238
-0.057154
-0.000941
0.039591
0.088939
0.128301
0.140054
0.149466
0.143625
0.131146
0.083991
0.036058
-0.018129
-0.069097
-0.112513
-0.139127
-0.156117
-0.166937
-0.163649
-0.158437
-0.128681
-0.089450
-0.037395
0.017707
0.055260
0.080613
0.103250
0.111455
0.112398
0.091166
0.049194
0.009526
-0.049948
-0.096414
-0.139124
-0.169394
-0.189629
-0.185946
-0.191108
-0.163836
-0.124349
-0.084278
-0.041548
0.000465
0.039798
0.077817
0.093574
0.089427
0.095695
0.073079
0.041079
0.006489
-0.037411
-0.074047
-0.128274
-0.164841
-0.185899
-0.198925
-0.185793
-0.164843
-0.136597
-0.090485
-0.047973
-0.002776
0.032010
0.072319
0.090663
0.103865
0.098219
0.078078
0.050277
0.004479
-0.042067
-0.077524
-0.118830
-0.163784
-0.185806
-0.187507
-0.180108
-0.167383
-0.123536
-0.088769
-0.043344
0.007857
0.055811
0.089339
0.109884
0.121601
0.113516
0.094115
0.047428
0.013299
-0.040489
-0.087698
-0.128634
-0.157077
-0.180821
-0.191700
-0.184059
-0.165340
-0.125823
-0.088344
-0.051737
-0.001146
0.042157
0.085319
0.105706
0.114609
0.102888
0.089938
0.060865
0.011545
-0.034211
-0.082455
-0.116699
-0.159908
-0.185824
-0.208059
-0.192453
-0.174286
-0.142928
-0.095788
-0.029372
0.012913
0.052700
0.089923
0.102721
0.108347
0.101604
0.081434
0.061399
0.025164
-0.029778
-0.075194
-0.117094
-0.162425
-0.187762
-0.185769
-0.176154
-0.151080
-0.132822
-0.088184
-0.044431
0.001820
0.045538
0.078226
0.100839
0.110301
0.105013
0.085402
0.038312
-0.009699
-0.050173
-0.091163
-0.132639
-0.165577
-0.189620
-0.211290
-0.190595
-0.169829
-0.133014
-0.094470
-0.054361
0.014254
0.050125
0.077025
0.101739
0.109536
0.102514
0.090221
0.047537
0.001674
-0.034126
-0.077970
-0.115905
-0.166883
-0.197316
-0.202088
-0.204921
-0.188416
-0.156709
-0.110393
-0.062235
-0.019116
0.036335
0.070100
0.090628
0.092591
0.084956
0.058477
0.038968
-0.007839
-0.069807
-0.113742
-0.155823
-0.181123
-0.203749
-0.220312
-0.200961
-0.179842
-0.151753
-0.105697
-0.063404
-0.023208
0.024440
0.060679
0.070880
0.086120
0.071113
0.052102
0.023929
-0.012608
-0.066110
-0.104620
-0.154208
-0.182049
-0.193981
-0.208617
-0.206641
-0.186421
-0.152269
-0.119059
-0.086599
-0.030840
0.020722
0.061381
0.086141
0.089303
0.089811
0.073964
0.033545
-0.005201
-0.054936
-0.099862
-0.141458
-0.179234
-0.200823
-0.200621
-0.196646
-0.187605
-0.150975
-0.103113
-0.054597
-0.002393
0.037174
0.062133
0.090015
0.113698
0.112996
0.098915
0.066122
0.031687
-0.019130
-0.074908
-0.120912
-0.159150
-0.177075
-0.185368
-0.175124
-0.155370
-0.123289
-0.081116
-0.039068
0.007907
0.040332
0.073159
0.094543
0.112555
0.103481
0.088961
0.051654
0.007193
-0.040328
-0.089188
-0.130450
-0.151357
-0.175800
-0.180613
-0.159788
-0.138254
-0.110116
-0.069307
-0.022953
0.022661
0.067288
0.106216
0.125107
0.122120
0.119267
0.117454
0.078860
0.039212
-0.012211
-0.054074
-0.111557
-0.145388
-0.159938
-0.181373
-0.175117
-0.170249
-0.132392
-0.091348
-0.051598
-0.018519
0.029679
0.069799
0.090393
0.103566
0.093263
0.069571
0.038206
-0.018402
-0.061653
-0.114004
-0.147404
-0.179916
-0.201253
-0.210702
-0.200810
-0.191357
-0.165586
-0.112562
-0.069144
-0.046036
-0.002648
0.030782
0.070433
0.095929
0.074496
0.049521
0.022113
-0.023514
-0.085836
-0.132004
-0.180415
-0.214782
-0.244326
-0.244817
-0.245615
-0.235141
-0.199995
-0.154600
-0.099763
-0.058453
-0.013957
0.025162
0.051280
0.066478
0.061663
0.040650
0.002453
-0.038384
-0.088144
-0.141077
-0.177648
-0.209034
-0.239561
-0.250229
-0.251780
-0.237718
-0.199725
-0.157510
-0.098469
-0.061281
-0.010174
0.039187
0.062557
0.049302
0.039835
0.023883
-0.001400
-0.038521
-0.089813
-0.134443
-0.179057
-0.209550
-0.231179
-0.248783
-0.236328
-0.223089
-0.182944
-0.132820
-0.086129
-0.053094
0.001669
0.031595
0.042089
0.059502
0.054256
0.028665
0.000153
-0.043649
-0.102300
-0.138296
-0.191169
-0.227331
-0.251527
-0.261124
-0.245896
-0.233016
-0.186990
-0.141992
-0.096443
-0.032661
0.023226
0.062729
0.104573
0.134953
0.153051
0.144386
0.124242
0.085134
0.044149
0.006789
-0.017584
-0.037866
-0.034656
-0.008873
0.022937
0.059747
0.118017
0.196102
0.268824
0.347426
0.421637
0.470896
0.523338
0.566865
0.594179
0.606477
0.601648
0.601443
0.588296
0.571705
0.578160
0.555707
0.525429
0.509240
0.520677
0.521828
0.543327
0.576876
0.600671
0.610961
0.579676
0.538127
0.493852
0.453971
0.413882
0.362179
0.294714
0.208252
0.125842
0.057679
-0.012952
-0.078778
-0.118920
-0.140873
-0.142954
-0.122273
-0.107359
-0.062638
-0.015647
0.049631
0.090659
0.118997
0.145192
0.164190
0.135338
0.119604
0.086788
0.036134
-0.010207
-0.061750
-0.109598
-0.148230
-0.159591
-0.173485
-0.181339
-0.173129
-0.137660
-0.095720
-0.050098
0.002833
0.041038
0.073000
0.100147
0.100766
0.093908
0.077176
0.034404
-0.011607
-0.052399
-0.101852
-0.151891
-0.187855
-0.210310
-0.221715
-0.205644
-0.186099
-0.154669
-0.113442
-0.060770
-0.004583
0.048016
0.075139
0.087797
0.094861
0.092239
0.076965
0.043694
-0.001421
-0.042928
-0.094323
-0.149830
-0.182025
-0.206075
-0.199241
-0.193891
-0.181391
-0.144748
-0.093900
-0.052105
0.005826
0.051136
0.094049
0.114980
0.124565
0.107252
0.094531
0.047084
-0.006774
-0.047125
-0.093304
-0.123360
-0.149829
-0.187362
-0.189913
-0.186604
-0.158592
-0.117789
-0.077222
-0.038841
0.015544
0.050888
0.080170
0.111291
0.125690
0.125293
0.109662
0.081184
0.045863
-0.013356
-0.068434
-0.096890
-0.129571
-0.157858
-0.163834
-0.147743
-0.128511
-0.097082
-0.051638
-0.006208
0.050611
0.098674
0.132792
0.154367
0.162281
0.159417
0.132771
0.104928
0.068214
0.028343
-0.029594
-0.061421
-0.094799
-0.116001
-0.125974
-0.123377
-0.102578
-0.064883
-0.029430
0.019172
0.083264
0.111904
0.146117
0.176235
0.183979
0.177313
0.163477
0.136109
0.101824
0.058790
0.003762
-0.032682
-0.065686
-0.091481
-0.105094
-0.105415
-0.077571
-0.052856
-0.004757
0.042034
0.088919
0.129054
0.170057
0.192331
0.201405
0.195442
0.182163
0.145311
0.095160
0.050391
0.006369
-0.031512
-0.068850
-0.104869
-0.106707
-0.095004
-0.076984
-0.046460
-0.005945
0.038497
0.078143
0.120794
0.143576
0.165435
0.180527
0.184237
0.173270
0.133486
0.085503
0.030400
-0.010868
-0.055080
-0.088241
-0.116788
-0.126272
-0.130572
-0.120074
-0.093083
-0.036218
0.011398
0.060180
0.102011
0.133303
0.143294
0.147967
0.142361
0.132911
0.094934
0.046000
-0.002990
-0.051282
-0.086461
-0.111996
-0.149724
-0.157474
-0.160625
-0.142637
-0.112019
-0.075874
-0.032451
0.013906
0.052138
0.085828
0.115190
0.130345
0.123634
0.096025
0.049592
0.006986
-0.041626
-0.094168
-0.128871
-0.164608
-0.198449
-0.206682
-0.201257
-0.182415
-0.144122
-0.117682
-0.073010
-0.025629
0.017009
0.055210
0.080459
0.089087
0.075811
0.066661
0.039979
-0.008609
-0.054391
-0.110954
-0.150234
-0.191505
-0.217892
-0.222891
-0.215441
-0.197796
-0.174984
-0.125217
-0.083277
-0.028884
0.009953
0.057658
0.068521
0.070522
0.063460
0.055405
0.024504
-0.016843
-0.069391
-0.115305
-0.157270
-0.197193
-0.218362
-0.226018
-0.220026
-0.206099
-0.170881
-0.127801
-0.078897
-0.034906
-0.000843
0.033747
0.052725
0.059294
0.051974
0.035370
0.014103
-0.023886
-0.063432
-0.124091
-0.148081
-0.188788
-0.210382
-0.226481
-0.217442
-0.193385
-0.166133
-0.115175
-0.062240
-0.021459
0.019588
0.054202
0.083014
0.086686
0.086893
0.060622
0.025299
-0.013567
-0.064478
-0.121088
-0.146308
-0.172936
-0.212858
-0.224052
-0.208200
-0.185585
-0.154951
-0.109718
-0.066686
-0.016139
0.022619
0.056109
0.086693
0.087794
0.075653
0.057738
0.039650
-0.014502
-0.060235
-0.116042
-0.165727
-0.181270
-0.197883
-0.215092
-0.206103
-0.190449
-0.176589
-0.129528
-0.081746
-0.033252
0.017176
0.060866
0.084184
0.095029
0.096509
0.072076
0.039799
-0.001861
-0.051013
-0.096854
-0.140522
-0.178698
-0.203259
-0.211353
-0.203573
-0.194469
-0.160489
-0.119326
-0.067116
-0.019290
0.019241
0.050721
0.068345
0.079268
0.084037
0.071665
0.031608
-0.019171
-0.071853
-0.121497
-0.153188
-0.194296
-0.217613
-0.221678
-0.209980
-0.187680
-0.155622
-0.115174
-0.064291
-0.011110
0.027962
0.064422
0.087034
0.087647
0.074706
0.049708
0.011160
-0.015375
-0.054060
-0.110546
-0.159204
-0.197982
-0.220063
-0.211295
-0.217367
-0.195994
-0.160770
-0.109057
-0.083895
-0.028949
0.010946
0.043485
0.052282
0.070958
0.064270
0.051595
0.030313
-0.021729
-0.072460
-0.126859
-0.169730
-0.205271
-0.223503
-0.223601
-0.216949
-0.199543
-0.174105
-0.136859
-0.080364
-0.031694
0.005846
0.035155
0.063638
0.064355
0.041338
0.025105
0.018571
-0.026751
-0.083644
-0.114020
-0.159342
-0.198443
-0.224872
-0.236465
-0.230066
-0.206548
-0.173940
-0.135245
-0.088599
-0.035332
0.002694
0.041473
0.069294
0.077818
0.068775
0.045252
0.013046
-0.027538
-0.072068
-0.110795
-0.157999
-0.199402
-0.228743
-0.229348
-0.215302
-0.196992
-0.167964
-0.119289
-0.076333
-0.017698
0.028804
0.072351
0.098622
0.105920
0.099518
0.081333
0.051152
0.006014
-0.050652
-0.102113
-0.153076
-0.188436
-0.192478
-0.206832
-0.208055
-0.186640
-0.165697
-0.116910
-0.061923
-0.020978
0.031136
0.075781
0.095901
0.098708
0.089276
0.073207
0.044407
0.001265
-0.043510
-0.079082
-0.120144
-0.157311
-0.178893
-0.180901
-0.164273
-0.147792
-0.126401
-0.082647
-0.031862
0.015053
0.053481
0.081719
0.115686
0.121908
0.115250
0.092098
0.053069
0.008995
-0.034514
-0.092736
-0.150338
-0.181715
-0.205955
-0.211450
-0.204452
-0.194471
-0.172460
-0.122794
-0.082491
-0.031786
0.008094
0.042043
0.066661
0.077193
0.069669
0.045031
0.013475
-0.023480
-0.073753
-0.126357
-0.164763
-0.205529
-0.229894
-0.245650
-0.242078
-0.223228
-0.206233
-0.157781
-0.113075
-0.063214
-0.017406
0.015589
0.033734
0.039200
0.034669
0.016973
-0.011238
-0.066138
-0.109066
-0.157417
-0.203620
-0.249679
-0.261371
-0.262709
-0.261376
-0.247499
-0.212084
-0.155001
-0.106703
-0.065827
-0.032749
0.007145
0.025096
0.031931
0.018649
-0.000752
-0.011778
-0.063041
-0.107373
-0.143606
-0.187782
-0.236796
-0.261500
-0.269083
-0.262375
-0.234223
-0.204854
-0.170090
-0.116280
-0.069897
-0.024018
0.017195
0.021638
0.034128
0.026628
0.009474
-0.019708
-0.057852
-0.113137
-0.157058
-0.200439
-0.240255
-0.261346
-0.257709
-0.240931
-0.226136
-0.213478
-0.167188
-0.126919
-0.078782
-0.037535
-0.007321
0.015492
0.023402
0.021951
-0.003250
-0.033191
-0.077025
-0.109967
-0.151348
-0.208387
-0.242756
-0.260401
-0.262169
-0.247114
-0.221836
-0.176958
-0.115828
-0.054412
0.018827
0.069336
0.115172
0.149781
0.160171
0.155277
0.155288
0.154463
0.141786
0.109624
0.092499
0.075318
0.059700
0.059048
0.083025
0.116070
0.173405
0.235499
0.304056
0.369921
0.447214
0.529821
0.616713
0.673911
0.711209
0.743295
0.755240
0.765461
0.728907
0.687458
0.642097
0.595667
0.544850
0.512212
0.483404
0.457601
0.423869
0.371289
0.344623
0.335770
0.333306
0.339250
0.330990
0.313404
0.272584
0.237685
0.194872
0.153184
0.095834
0.030038
-0.022806
-0.058175
-0.115418
-0.144194
-0.159299
-0.150565
-0.134122
-0.094049
-0.057493
-0.008670
0.016554
0.060161
0.094603
0.113744
0.119909
0.120337
0.097100
0.069031
0.027219
-0.035791
-0.082404
-0.130274
-0.180393
-0.194235
-0.211351
-0.208154
-0.187850
-0.156002
-0.110181
-0.065016
-0.015049
0.027638
0.061222
0.079607
0.091905
0.082141
0.056944
0.030113
-0.018405
-0.069503
-0.102216
-0.148039
-0.197194
-0.223856
-0.221456
-0.213467
-0.203984
-0.178503
-0.124013
-0.075625
-0.029174
0.022683
0.065015
0.086465
0.095747
0.088946
0.062678
0.036594
-0.010893
-0.063600
-0.107726
-0.150758
-0.186094
-0.207004
-0.213330
-0.203509
-0.184294
-0.157760
-0.113618
-0.060379
-0.014869
0.036787
0.070444
0.101000
0.105279
0.095700
0.065165
0.044541
0.005046
-0.048568
-0.084975
-0.125388
-0.161560
-0.180964
-0.191282
-0.174258
-0.154806
-0.129632
-0.086797
-0.044123
-0.002394
0.053868
0.087696
0.107053
0.120100
0.121799
0.108121
0.074140
0.026891
-0.013820
-0.062857
-0.110955
-0.139720
-0.160881
-0.166687
-0.167578
-0.134989
-0.109069
-0.063241
-0.009053
0.039558
0.082609
0.113979
0.144248
0.161703
0.160489
0.151335
0.115697
0.071683
0.022633
-0.013711
-0.069340
-0.107359
-0.131250
-0.134220
-0.123661
-0.100735
-0.063173
-0.021035
0.021738
0.067592
0.117600
0.158220
0.181113
0.185138
0.183186
0.152368
0.139532
0.096268
0.042280
0.009497
-0.046403
-0.081695
-0.099310
-0.111116
-0.101601
-0.082258
-0.053934
-0.008435
0.034791
0.080706
0.126454
0.162160
0.183437
0.185473
0.180245
0.165838
0.137624
0.099548
0.045208
-0.011177
-0.061813
-0.089091
-0.110995
-0.116445
-0.115123
-0.097121
-0.073177
-0.022673
0.025082
0.064316
0.103355
0.147809
0.177981
0.192000
0.170227
0.152470
0.126163
0.083257
0.026616
-0.017161
-0.072938
-0.103293
-0.131476
-0.143280
-0.137380
-0.111336
-0.091391
-0.052531
-0.007177
0.037843
0.077878
0.113251
0.133027
0.141413
0.120803
0.104751
0.079772
0.034717
-0.023414
-0.069108
-0.116885
-0.150787
-0.164696
-0.179963
-0.169266
-0.151321
-0.123198
-0.093072
-0.040169
-0.007948
0.044942
0.078376
0.083773
0.094844
0.092000
0.075250
0.031318
-0.012999
-0.061563
-0.107181
-0.154960
-0.186081
-0.207589
-0.213973
-0.207133
-0.186358
-0.149056
-0.110659
-0.064828
-0.021721
0.022468
0.049426
0.059310
0.072306
0.058590
0.044943
0.019070
-0.029034
-0.064216
-0.114583
-0.159666
-0.198203
-0.219454
-0.229778
-0.219228
-0.199756
-0.179792
-0.130843
-0.091516
-0.050078
0.006478
0.034604
0.061740
0.069761
0.063576
0.046014
0.018698
-0.034404
-0.077257
-0.125196
-0.173745
-0.203522
-0.228598
-0.231016
-0.224517
-0.196958
-0.168484
-0.125046
-0.083813
-0.041525
-0.003133
0.037586
0.063707
0.066823
0.072269
0.052894
0.007872
-0.042887
-0.091344
-0.115872
-0.154858
-0.194848
-0.222520
-0.231565
-0.225545
-0.216371
-0.173311
-0.127061
-0.076357
-0.026655
0.016656
0.049623
0.070605
0.091513
0.077708
0.057620
0.019270
-0.021884
-0.080126
-0.125855
-0.174455
-0.203067
-0.223418
-0.221858
-0.211252
-0.188486
-0.157510
-0.118246
-0.066321
-0.022115
0.018921
0.049378
0.078288
0.088682
0.084313
0.062471
0.023631
-0.014955
-0.058965
-0.106507
-0.157329
-0.193687
-0.209655
-0.218265
-0.207381
-0.192278
-0.158889
-0.117763
-0.070007
-0.017917
0.025719
0.055966
0.083969
0.090133
0.075223
0.049141
0.027284
-0.018890
-0.065753
-0.105109
-0.147450
-0.173802
-0.201262
-0.220036
-0.208317
-0.184195
-0.144387
-0.106271
-0.070717
-0.017948
0.026145
0.057542
0.071013
0.071896
0.070688
0.053459
0.013193
-0.017072
-0.063878
-0.105920
-0.143556
-0.178318
-0.197980
-0.213388
-0.211137
-0.193406
-0.160212
-0.123646
-0.068368
-0.019166
0.018581
0.045056
0.065626
0.072736
0.071257
0.045625
0.016610
-0.029753
-0.073346
-0.113284
-0.164758
-0.205351
-0.216118
-0.217231
-0.211345
-0.195287
-0.157756
-0.112248
-0.067675
-0.030076
0.008368
0.039484
0.070279
0.075970
0.070404
0.047269
0.007867
-0.023975
-0.072549
-0.116993
-0.166028
-0.204897
-0.233372
-0.221415
-0.219701
-0.202585
-0.171330
-0.123618
-0.081709
-0.035418
0.000243
0.033739
0.059397
0.068297
0.063299
0.037567
0.004592
-0.032610
-0.080738
-0.127492
-0.164321
-0.196718
-0.218516
-0.226138
-0.222851
-0.207449
-0.167566
-0.140724
-0.093504
-0.045097
-0.000247
0.032792
0.064455
0.073264
0.064209
0.051822
0.013589
-0.024610
-0.074713
-0.121700
-0.162502
-0.204254
-0.224248
-0.222767
-0.210837
-0.186111
-0.163045
-0.122910
-0.076802
-0.020251
0.033677
0.066458
0.081628
0.091463
0.080639
0.066149
0.035574
0.003911
-0.054385
-0.106985
-0.145251
-0.170380
-0.184246
-0.199692
-0.196891
-0.175276
-0.136031
-0.101426
-0.046855
0.002979
0.041269
0.068834
0.106784
0.109365
0.087658
0.064761
0.020041
-0.001426
-0.046922
-0.093656
-0.133479
-0.161413
-0.174465
-0.182917
-0.167249
-0.147128
-0.122354
-0.076786
-0.033764
0.017317
0.057917
0.092966
0.115446
0.121287
0.106631
0.096665
0.054469
0.014906
-0.037200
-0.090039
-0.136137
-0.169072
-0.198885
-0.206218
-0.198305
-0.179207
-0.153270
-0.119266
-0.079619
-0.027318
0.027311
0.056179
0.074346
0.066301
0.060356
0.046499
0.015224
-0.028223
-0.083170
-0.119829
-0.158880
-0.207597
-0.227033
-0.229292
-0.221000
-0.208980
-0.169681
-0.130492
-0.093474
-0.048357
-0.015601
0.019999
0.039351
0.047508
0.039435
0.013593
-0.016796
-0.052938
-0.097822
-0.139676
-0.192241
-0.225839
-0.257806
-0.259500
-0.253742
-0.233856
-0.201476
-0.153418
-0.107919
-0.065615
-0.033316
0.004105
0.038299
0.043213
0.036035
0.012981
-0.021351
-0.055825
-0.103159
-0.148870
-0.197270
-0.229192
-0.260188
-0.254891
-0.247339
-0.232494
-0.204499
-0.162933
-0.112594
-0.080257
-0.031438
-0.008880
0.009762
0.011967
0.017282
0.012833
-0.011551
-0.053342
-0.101281
-0.144661
-0.188590
-0.219202
-0.255321
-0.254284
-0.252207
-0.231649
-0.199661
-0.173158
-0.119961
-0.073586
-0.030001
0.004374
0.031233
0.026516
0.028080
0.004899
-0.033761
-0.062262
-0.113653
-0.161476
-0.213364
-0.243609
-0.264642
-0.270198
-0.259839
-0.233677
-0.197987
-0.172795
-0.104976
-0.044787
-0.001091
0.045787
0.076003
0.088197
0.103166
0.109356
0.083482
0.074458
0.041089
0.009584
-0.027967
-0.043512
-0.043522
-0.011323
0.005024
0.045627
0.103408
0.186483
0.277408
0.362768
0.432514
0.508126
0.567004
0.597179
0.624877
0.639667
0.658799
0.660261
0.647123
0.627316
0.632543
0.619042
0.598035
0.575228
0.592210
0.610941
0.613298
0.630832
0.654329
0.673689
0.666400
0.620591
0.580173
0.523139
0.454063
0.382768
0.305190
0.216118
0.128108
0.054326
0.013918
-0.042634
-0.067474
-0.082787
-0.086232
-0.075071
-0.056296
-0.027790
0.023556
0.064673
0.098535
0.127729
0.144223
0.144875
0.134810
0.112863
0.073563
0.037062
-0.005877
-0.058821
-0.109677
-0.153074
-0.178602
-0.184814
-0.168055
-0.161553
-0.133059
-0.098370
-0.054736
-0.001505
0.035100
0.072564
0.090372
0.098491
0.082190
0.065347
0.024062
-0.013519
-0.056671
-0.102265
-0.149476
-0.180763
-0.203736
-0.210262
-0.201879
-0.185764
-0.148641
-0.108871
-0.062636
-0.027151
0.019387
0.057264
0.082143
0.098823
0.083069
0.067045
0.041632
0.002182
-0.037471
-0.104449
-0.151896
-0.183598
-0.202797
-0.200708
-0.195067
-0.179717
-0.137718
-0.105538
-0.058156
-0.001560
0.031358
0.083364
0.096111
0.114838
0.108505
0.082613
0.044401
0.013940
-0.025865
-0.071581
-0.113886
-0.151610
-0.183677
-0.201850
-0.187837
-0.164580
-0.132448
-0.103719
-0.046950
0.013894
0.048250
0.093052
0.120759
0.130686
0.118524
0.100284
0.061675
0.032731
-0.015487
-0.057826
-0.098039
-0.134334
-0.157246
-0.169321
-0.166121
-0.130049
-0.095033
-0.063530
-0.012775
0.034964
0.082607
0.117345
0.139560
0.154609
0.153141
0.138816
0.103729
0.073201
0.021706
-0.019331
-0.053994
-0.093575
-0.117560
-0.122018
-0.113863
-0.096174
-0.053869
-0.022061
0.032815
0.084910
0.119817
0.163004
0.190073
0.186230
0.190502
0.172512
0.133127
0.096511
0.049120
0.004025
-0.030518
-0.065898
-0.087529
-0.092702
-0.085391
-0.067282
-0.037557
0.000389
0.043354
0.096652
0.135489
0.178173
0.203063
0.207316
0.197503
0.176642
0.133252
0.103673
0.060393
0.010621
-0.015399
-0.052994
-0.082815
-0.098195
-0.091492
-0.069331
-0.026514
0.007667
0.040259
0.087356
0.137140
0.173337
0.181883
0.183876
0.191035
0.171174
0.131800
0.089836
0.041732
0.000424
-0.036475
-0.079315
-0.119858
-0.122860
-0.118637
-0.092782
-0.067024
-0.025710
0.021078
0.071465
0.101322
0.132427
0.153739
0.156855
0.152363
0.130641
0.097887
0.062478
0.014248
-0.039168
-0.079491
-0.115908
-0.134875
-0.147115
-0.150475
-0.144228
-0.104429
-0.073435
-0.027031
0.016499
0.049551
0.088705
0.121267
0.120456
0.112277
0.093339
0.058583
0.015797
-0.023116
-0.069678
-0.114329
-0.156320
-0.187172
-0.201829
-0.194226
-0.177172
-0.146561
-0.106454
-0.051452
-0.014489
0.034252
0.067381
0.083122
0.088936
0.081196
0.058679
0.027628
-0.010639
-0.054892
-0.110566
-0.147405
-0.181233
-0.202518
-0.207582
-0.204485
-0.184625
-0.156532
-0.121014
-0.068805
-0.016573
0.020628
0.073887
0.091462
0.098467
0.090514
0.066770
0.015550
-0.024647
-0.062976
-0.107208
-0.157351
-0.197117
-0.220032
-0.219294
-0.205463
-0.179969
-0.155646
-0.122942
-0.076432
-0.035384
0.006448
0.040770
0.064847
0.081529
0.086195
0.064832
0.030269
-0.011756
-0.057088
-0.116176
-0.145815
-0.187346
-0.215305
-0.226855
-0.215208
-0.187824
-0.160365
-0.110371
-0.061279
-0.023789
0.019956
0.067755
0.094966
0.095119
0.093961
0.066711
0.035662
-0.005341
-0.057230
-0.107011
-0.140290
-0.185481
-0.210720
-0.225020
-0.212333
-0.190502
-0.150790
-0.115074
-0.071768
-0.012905
0.039103
0.076359
0.092024
0.101850
0.087396
0.070698
0.046273
0.003211
-0.045634
-0.088400
-0.132802
-0.165779
-0.188937
-0.199536
-0.200118
-0.185801
-0.150345
-0.114210
-0.058087
-0.010221
0.030900
0.068252
0.094780
0.095649
0.096430
0.085886
0.037307
-0.002672
-0.043424
-0.089251
-0.132903
-0.162870
-0.187479
-0.194881
-0.192909
-0.177211
-0.141558
-0.101520
-0.063678
-0.013003
0.023834
0.062403
0.094310
0.093866
0.090148
0.071673
0.041290
-0.007861
-0.046775
-0.091317
-0.127483
-0.169508
-0.191755
-0.205995
-0.190636
-0.170123
-0.134625
-0.104974
-0.055242
-0.021679
0.027835
0.070197
0.101131
0.107398
0.100204
0.065737
0.027393
-0.017645
-0.046815
-0.092404
-0.133891
-0.172159
-0.207609
-0.212148
-0.196480
-0.173396
-0.143247
-0.118877
-0.064732
-0.014080
0.024359
0.059084
0.083365
0.093715
0.078740
0.059710
0.034881
-0.010365
-0.055911
-0.097264
-0.149336
-0.169105
-0.193033
-0.201284
-0.203643
-0.191941
-0.160830
-0.111697
-0.065968
-0.015115
0.022521
0.054404
0.083258
0.089334
0.084688
0.055870
0.025768
-0.022508
-0.059745
-0.113643
-0.142924
-0.178098
-0.210073
-0.215435
-0.205326
-0.196990
-0.160307
-0.118022
-0.070937
-0.032380
0.017274
0.054567
0.070415
0.085538
0.069770
0.042249
0.017195
-0.022810
-0.069509
-0.121929
-0.162095
-0.186911
-0.206788
-0.214038
-0.208020
-0.194577
-0.164131
-0.129847
-0.090199
-0.045552
0.007248
0.052355
0.073467
0.078304
0.084549
0.061673
0.031128
-0.015429
-0.070105
-0.107070
-0.148126
-0.182893
-0.202305
-0.205379
-0.199547
-0.175322
-0.148188
-0.113656
-0.057837
-0.002686
0.037432
0.071537
0.086441
0.102835
0.100824
0.073018
0.044551
0.008945
-0.035036
-0.083372
-0.115354
-0.144627
-0.160242
-0.179763
-0.167143
-0.148697
-0.118218
-0.091681
-0.044177
0.007562
0.055237
0.084440
0.100792
0.113928
0.102634
0.082860
0.049114
0.007420
-0.035277
-0.084917
-0.129919
-0.162507
-0.165981
-0.164704
-0.150965
-0.118858
-0.092958
-0.062424
-0.023156
0.024872
0.063418
0.109510
0.132977
0.146883
0.137817
0.104822
0.052971
0.010718
-0.040416
-0.076270
-0.115622
-0.155457
-0.181730
-0.193350
-0.196242
-0.171507
-0.140239
-0.094098
-0.057430
0.002932
0.036854
0.066807
0.086167
0.091855
0.075816
0.050904
0.027374
-0.023379
-0.061056
-0.113375
-0.158735
-0.198347
-0.214523
-0.224795
-0.222024
-0.198295
-0.165842
-0.133751
-0.088753
-0.051603
-0.007847
0.032506
0.049103
0.061624
0.067088
0.043049
0.002644
-0.044591
-0.089759
-0.130602
-0.166897
-0.215823
-0.236913
-0.246814
-0.244018
-0.223093
-0.189039
-0.149994
-0.115022
-0.065607
-0.023812
0.016337
0.038141
0.039038
0.041648
0.033770
-0.007421
-0.044602
-0.087051
-0.137046
-0.185703
-0.222715
-0.245414
-0.243585
-0.242944
-0.230760
-0.202151
-0.152251
-0.106339
-0.045679
-0.015954
0.031794
0.054826
0.062348
0.044959
0.027242
0.000193
-0.043407
-0.096935
-0.136954
-0.187461
-0.224801
-0.249826
-0.251925
-0.249263
-0.224162
-0.191676
-0.153027
-0.107786
-0.050653
-0.009649
0.018369
0.038782
0.043899
0.036751
0.016160
-0.004550
-0.047201
-0.094472
-0.147196
-0.187893
-0.226190
-0.251039
-0.270701
-0.254039
-0.231685
-0.196431
-0.151934
-0.108164
-0.057279
0.009087
0.060648
0.080528
0.100117
0.122433
0.113815
0.092920
0.074723
0.041213
0.005958
-0.019433
-0.029778
-0.045942
-0.020519
0.009862
0.074732
0.134004
0.223623
0.294747
0.384920
0.466005
0.532480
0.591651
0.624917
0.645425
0.672353
0.691656
0.697813
0.689600
0.686523
0.677858
0.654666
0.637303
0.619958
0.617737
0.628186
0.640987
0.671035
0.686897
0.709269
0.702967
0.667009
0.616255
0.557670
0.491482
0.423882
0.331923
0.245177
0.170267
0.105531
0.057917
0.007199
-0.021846
-0.046342
-0.047761
-0.047068
-0.012913
0.008522
0.025073
0.053069
0.094085
0.128224
0.144851
0.149774
0.136902
0.124772
0.092448
0.048833
0.020463
-0.038225
-0.080705
-0.121654
-0.163659
-0.159055
-0.156707
-0.138472
-0.121667
-0.082911
-0.040873
0.003717
0.046826
0.080531
0.094171
0.107472
0.090522
0.074663
0.052004
0.008384
-0.036106
-0.092257
-0.141351
-0.172813
-0.194077
-0.195166
-0.180424
-0.173692
-0.126979
-0.091738
-0.057960
-0.007486
0.026313
0.057848
0.087218
0.101662
0.099134
0.074271
0.059304
0.019938
-0.028552
-0.089378
-0.136833
-0.159364
-0.179820
-0.192746
-0.186097
-0.150221
-0.126318
-0.091990
-0.048573
-0.000694
0.049020
0.076162
0.105028
0.100965
0.104502
0.085154
0.059593
0.016215
-0.023559
-0.067843
-0.117175
-0.141600
-0.164402
-0.178808
-0.162432
-0.146765
-0.111386
-0.068890
-0.031650
0.014862
0.064812
0.105927
0.126314
0.146679
0.133661
0.112881
0.082684
0.043021
0.003934
-0.043612
-0.090222
-0.116979
-0.134404
-0.136534
-0.134210
-0.113504
-0.085197
-0.039372
0.002616
0.050731
0.087717
0.129396
0.153808
0.162832
0.142950
0.127407
0.111006
0.085477
0.047561
-0.000585
-0.047822
-0.080127
-0.107889
-0.117732
-0.108639
-0.081936
-0.048013
-0.009670
0.031023
0.090297
0.130579
0.158075
0.189827
0.195979
0.195469
0.180436
0.147005
0.104293
0.085438
0.031336
0.003992
-0.050112
-0.068289
-0.080808
-0.073877
-0.060354
-0.032103
0.015939
0.057619
0.109486
0.150955
0.182406
0.214966
0.224435
0.212908
0.188789
0.154049
0.115389
0.083911
0.031423
-0.019496
-0.048601
-0.073969
-0.076225
-0.077599
-0.052063
-0.022397
0.019692
0.060967
0.106522
0.152587
0.181270
0.208220
0.206172
0.194938
0.178457
0.148654
0.102940
0.057900
0.009138
-0.037489
-0.072007
-0.100879
-0.109278
-0.103437
-0.083635
-0.054347
-0.011644
0.034509
0.083450
0.115341
0.148616
0.167046
0.173155
0.158086
0.142539
0.110222
0.074878
0.044627
-0.026946
-0.062283
-0.112009
-0.133878
-0.155990
-0.141218
-0.128170
-0.089449
-0.051643
-0.015960
0.033310
0.075180
0.097295
0.124382
0.138589
0.128109
0.106968
0.070602
0.036582
-0.009079
-0.053100
-0.107801
-0.139713
-0.176581
-0.185171
-0.179578
-0.155917
-0.132910
-0.085708
-0.056954
-0.015925
0.030358
0.061491
0.086389
0.098671
0.086446
0.071363
0.046715
0.006695
-0.035245
-0.087346
-0.137587
-0.170159
-0.188969
-0.200753
-0.194336
-0.171385
-0.148912
-0.105745
-0.056717
-0.008113
0.022531
0.044545
0.068339
0.075992
0.074820
0.061527
0.026206
-0.016477
-0.050951
-0.098571
-0.137185
-0.171798
-0.194313
-0.208252
-0.195936
-0.177431
-0.147026
-0.103352
-0.064486
-0.021162
0.023500
0.053874
0.079585
0.096585
0.082355
0.076863
0.037179
-0.006444
-0.054778
-0.107817
-0.140699
-0.172679
-0.198377
-0.207373
-0.201854
-0.177351
-0.148873
-0.101711
-0.058679
-0.015815
0.035251
0.068423
0.091967
0.109897
0.102832
0.075855
0.042925
-0.004824
-0.050175
-0.088407
-0.125820
-0.167133
-0.195216
-0.203370
-0.187916
-0.171932
-0.136571
-0.098136
-0.054986
-0.008047
0.035294
0.068397
0.104274
0.112939
0.102979
0.079561
0.039909
-0.003534
-0.042736
-0.090580
-0.117006
-0.153817
-0.180460
-0.193704
-0.187200
-0.172790
-0.142908
-0.091469
-0.042542
0.000540
0.034814
0.071475
0.101331
0.104919
0.099816
0.080871
0.042932
0.011320
-0.035568
-0.086274
-0.114733
-0.150203
-0.182109
-0.193358
-0.179550
-0.159417
-0.118302
-0.077914
-0.039135
0.002698
0.033712
0.070609
0.103902
0.096376
0.095502
0.076047
0.044628
0.011156
-0.035297
-0.081266
-0.129769
-0.156390
-0.175006
-0.178679
-0.172599
-0.158675
-0.133712
-0.081160
-0.047251
-0.007783
0.029547
0.060442
0.088326
0.097713
0.105251
0.061704
0.045787
0.002716
-0.046460
-0.097435
-0.130449
-0.175041
-0.197137
-0.200855
-0.177324
-0.164398
-0.126846
-0.088381
-0.050450
0.001108
0.044044
0.073869
0.093863
0.095383
0.098195
0.074586
0.039157
0.002299
-0.051045
-0.094929
-0.145777
-0.175148
-0.208264
-0.209940
-0.203041
-0.178250
-0.144853
-0.095194
-0.052585
-0.008516
0.032560
0.068975
0.087344
0.096302
0.092492
0.076992
0.033545
-0.010102
-0.059615
-0.098616
-0.150608
-0.178225
-0.208116
-0.210172
-0.201838
-0.175313
-0.133712
-0.104664
-0.061290
-0.021499
0.018357
0.052159
0.069347
0.069912
0.078644
0.060086
0.035266
-0.015381
-0.058139
-0.101860
-0.138777
-0.183067
-0.205018
-0.211224
-0.203830
-0.178973
-0.147378
-0.104003
-0.074941
-0.028711
0.031522
0.053834
0.072971
0.079680
0.075161
0.051678
0.023167
-0.013104
-0.051216
-0.098137
-0.135639
-0.167767
-0.201131
-0.204662
-0.199459
-0.178204
-0.155278
-0.104597
-0.073515
-0.024982
0.019500
0.049920
0.073870
0.076197
0.075942
0.057831
0.030837
-0.020066
-0.069836
-0.104872
-0.154523
-0.193830
-0.205307
-0.213230
-0.211441
-0.188229
-0.155899
-0.104737
-0.057912
-0.014444
0.021945
0.060849
0.080150
0.079930
0.071376
0.048148
0.019292
-0.015506
-0.058526
-0.108445
-0.152723
-0.192942
-0.208021
-0.208466
-0.198411
-0.186284
-0.149863
-0.104730
-0.064112
-0.014108
0.023423
0.071778
0.091766
0.102516
0.102572
0.081652
0.054524
0.007172
-0.038273
-0.089347
-0.128579
-0.158918
-0.180755
-0.182084
-0.176562
-0.151154
-0.113700
-0.076628
-0.028491
0.015800
0.064228
0.097995
0.122583
0.134177
0.124314
0.098217
0.061325
0.031156
-0.015571
-0.073166
-0.115412
-0.146350
-0.171141
-0.186674
-0.173997
-0.150036
-0.114623
-0.060344
-0.012706
0.044968
0.084426
0.115185
0.134108
0.139147
0.135487
0.109874
0.084434
0.047287
-0.002986
-0.044286
-0.083967
-0.124932
-0.157891
-0.173259
-0.175499
-0.156112
-0.120720
-0.082297
-0.037293
-0.001362
0.049007
0.081443
0.101589
0.110353
0.102186
0.081556
0.039972
0.006620
-0.046974
-0.102268
-0.133671
-0.169229
-0.194875
-0.203147
-0.205063
-0.180625
-0.151114
-0.101368
-0.065347
-0.019020
0.020611
0.057413
0.068529
0.071703
0.059547
0.040137
0.009880
-0.030134
-0.068867
-0.124829
-0.169571
-0.185828
-0.217910
-0.228857
-0.218152
-0.205459
-0.178210
-0.132189
-0.096416
-0.050551
-0.002733
0.033067
0.051644
0.064863
0.055071
0.034158
0.003920
-0.043615
-0.099112
-0.126924
-0.165668
-0.202526
-0.223195
-0.241270
-0.236975
-0.206619
-0.182654
-0.143162
-0.086952
-0.051547
-0.007661
0.040982
0.058909
0.055885
0.041831
0.026112
0.007018
-0.020403
-0.072891
-0.119427
-0.168159
-0.206105
-0.230518
-0.239539
-0.231110
-0.216291
-0.185046
-0.139130
-0.089833
-0.049961
-0.011530
0.026024
0.052209
0.052149
0.044986
0.032360
0.002594
-0.041045
-0.089459
-0.142505
-0.169983
-0.215341
-0.229345
-0.233544
-0.237795
-0.211457
-0.172123
-0.132373
-0.098938
-0.051721
-0.012320
0.025963
0.061694
0.066459
0.061941
0.053990
0.033427
-0.007786
-0.035164
-0.061163
-0.090307
-0.110736
-0.104618
-0.105638
-0.093132
-0.052090
-0.000782
0.065579
0.131421
0.200709
0.281284
0.344591
0.392650
0.437017
0.471399
0.487019
0.479498
0.480699
0.475392
0.464921
0.466216
0.485833
0.506537
0.529657
0.567106
0.630059
0.697258
0.726694
0.751409
0.803644
0.838561
0.838482
0.847896
0.834121
0.800445
0.736116
0.618843
0.508601
0.401972
0.297492
0.204551
0.118949
0.052020
0.015461
0.001362
0.008118
0.033593
0.070431
0.101228
0.139005
0.157695
0.186168
0.190082
0.191391
0.171703
0.139625
0.108668
0.078079
0.016970
-0.023360
-0.074022
-0.109181
-0.129892
-0.147118
-0.147905
-0.129916
-0.095483
-0.068725
-0.027855
0.011634
0.060541
0.093762
0.117440
0.118541
0.110288
0.085927
0.053438
0.002958
-0.034017
-0.080306
-0.119250
-0.156819
-0.180802
-0.172502
-0.167944
-0.145228
-0.121782
-0.095665
-0.047510
-0.005610
0.039915
0.069794
0.096403
0.106163
0.096662
0.080668
0.045275
0.012773
-0.031346
-0.069057
-0.120881
-0.140653
-0.182407
-0.184649
-0.181678
-0.162020
-0.126532
-0.082672
-0.044856
-0.006735
0.036957
0.080636
0.101880
0.122754
0.113349
0.093605
0.064856
0.006865
-0.036340
-0.076061
-0.117989
-0.145443
-0.169138
-0.180071
-0.169171
-0.141399
-0.110961
-0.077569
-0.028433
0.014144
0.066152
0.104320
0.118528
0.144400
0.137712
0.117999
0.090212
0.035885
-0.007254
-0.054153
-0.087436
-0.123602
-0.139063
-0.154422
-0.150128
-0.129104
-0.087471
-0.050240
0.001607
0.042505
0.086587
0.128736
0.151773
0.164490
0.164464
0.146743
0.108511
0.072119
0.020597
-0.013733
-0.062548
-0.099306
-0.111905
-0.116609
-0.101703
-0.082042
-0.058363
-0.011163
0.028826
0.081072
0.120570
0.166463
0.181948
0.192910
0.186271
0.170846
0.137006
0.107840
0.058929
0.016193
-0.028432
-0.057513
-0.081548
-0.089582
-0.074937
-0.055716
-0.027623
0.009223
0.061709
0.109041
0.154091
0.187757
0.204631
0.213416
0.205626
0.184359
0.163146
0.120654
0.075934
0.036517
-0.012230
-0.053144
-0.061611
-0.073988
-0.072154
-0.043921
-0.014823
0.015568
0.066142
0.107493
0.152368
0.185025
0.203552
0.217214
0.210456
0.179692
0.151156
0.110688
0.053815
0.013681
-0.028881
-0.062548
-0.091207
-0.093339
-0.081132
-0.056011
-0.030151
0.003251
0.040673
0.081438
0.126739
0.155751
0.171909
0.182864
0.186099
0.162346
0.125099
0.085933
0.043439
-0.002266
-0.060257
-0.087129
-0.105988
-0.132338
-0.128265
-0.098586
-0.073876
-0.035949
0.009276
0.045526
0.093511
0.125290
0.143632
0.147398
0.141876
0.111193
0.078230
0.038171
-0.006703
-0.055676
-0.106997
-0.138881
-0.156734
-0.172895
-0.159020
-0.147211
-0.124410
-0.084693
-0.034758
0.007671
0.045534
0.075680
0.098432
0.117164
0.107717
0.078733
0.048450
-0.002992
-0.049739
-0.088938
-0.131085
-0.170174
-0.188246
-0.195475
-0.192808
-0.163256
-0.133047
-0.092842
-0.054318
-0.012982
0.021335
0.060523
0.076849
0.099732
0.090789
0.065386
0.039912
-0.007471
-0.057317
-0.095275
-0.147711
-0.179263
-0.194269
-0.201795
-0.194201
-0.180965
-0.143993
-0.101202
-0.065276
-0.013089
0.021343
0.057738
0.078060
0.084301
0.082050
0.063035
0.041031
-0.004649
-0.056604
-0.097750
-0.148140
-0.183557
-0.197232
-0.209730
-0.198397
-0.173156
-0.146042
-0.103210
-0.046902
-0.008134
0.033868
0.067466
0.089584
0.104815
0.089980
0.071666
0.042121
-0.001303
-0.044937
-0.090354
-0.131105
-0.170014
-0.186423
-0.197638
-0.194557
-0.169392
-0.136156
-0.095176
-0.039620
-0.011232
0.035583
0.072271
0.093991
0.104682
0.103247
0.078494
0.030080
-0.013876
-0.048690
-0.092666
-0.128807
-0.172776
-0.189749
-0.188139
-0.181929
-0.163301
-0.130910
-0.094308
-0.052006
-0.002828
0.039784
0.079057
0.098784
0.103857
0.097991
0.081035
0.054001
0.008381
-0.041720
-0.074125
-0.122781
-0.162393
-0.176440
-0.192543
-0.187626
-0.168775
-0.136497
-0.085413
-0.041850
-0.008248
0.039887
0.072305
0.095125
0.100521
0.096040
0.083425
0.059206
0.009244
-0.035843
-0.083385
-0.128374
-0.154870
-0.169583
-0.188783
-0.181177
-0.165868
-0.140594
-0.104829
-0.049518
-0.010947
0.030642
0.067000
0.091282
0.103531
0.095657
0.070624
0.033156
-0.007566
-0.053765
-0.091986
-0.143410
-0.172152
-0.198352
-0.207838
-0.195761
-0.170654
-0.132897
-0.096834
-0.054686
-0.020766
0.028683
0.070263
0.095507
0.109157
0.091093
0.076120
0.032925
-0.009403
-0.059406
-0.098030
-0.141475
-0.182383
-0.200344
-0.206626
-0.189635
-0.174910
-0.150403
-0.101743
-0.052283
-0.011202
0.032676
0.057628
0.080505
0.084530
0.079677
0.060297
0.023354
-0.020005
-0.062355
-0.106915
-0.142841
-0.180579
-0.209055
-0.219036
-0.213442
-0.173709
-0.146890
-0.103933
-0.059567
-0.016315
0.020051
0.041188
0.053345
0.072015
0.068435
0.052461
0.021704
-0.011580
-0.064601
-0.103293
-0.153312
-0.179013
-0.206111
-0.216151
-0.214271
-0.193874
-0.152796
-0.122419
-0.081142
-0.050353
-0.002695
0.045077
0.059010
0.074478
0.063496
0.051059
0.019464
-0.016925
-0.069224
-0.105891
-0.147610
-0.180752
-0.196999
-0.218836
-0.214607
-0.187088
-0.155565
-0.116017
-0.072678
-0.039756
0.004804
0.041022
0.059322
0.080774
0.065282
0.042379
0.009937
-0.028834
-0.070060
-0.109562
-0.144025
-0.185320
-0.204325
-0.218897
-0.206262
-0.192372
-0.176114
-0.123816
-0.069224
-0.022096
0.010241
0.036919
0.059617
0.078297
0.068414
0.046736
0.010372
-0.024505
-0.067719
-0.104046
-0.156074
-0.189356
-0.212143
-0.213158
-0.209041
-0.185199
-0.154759
-0.115863
-0.075208
-0.023577
0.018236
0.054476
0.079795
0.097957
0.092275
0.063267
0.028536
-0.012457
-0.053745
-0.091801
-0.124104
-0.154724
-0.172529
-0.185640
-0.179371
-0.154570
-0.123275
-0.075200
-0.031458
0.019283
0.053024
0.078220
0.097431
0.101938
0.099359
0.078023
0.042439
0.005025
-0.037352
-0.083037
-0.123735
-0.145228
-0.167413
-0.185873
-0.182002
-0.159996
-0.126505
-0.072680
-0.022637
0.021699
0.065398
0.102049
0.118512
0.135529
0.123226
0.105836
0.075701
0.043015
-0.000690
-0.054154
-0.090410
-0.132116
-0.162345
-0.179408
-0.179101
-0.163849
-0.128783
-0.098155
-0.060227
-0.017691
0.026794
0.059697
0.088179
0.096450
0.090614
0.066950
0.024885
-0.016788
-0.058386
-0.115713
-0.146658
-0.169939
-0.196389
-0.206149
-0.195301
-0.177442
-0.151323
-0.111829
-0.084557
-0.034062
0.011456
0.048048
0.057971
0.072008
0.063563
0.035984
0.002286
-0.038374
-0.065527
-0.119636
-0.164806
-0.210292
-0.230180
-0.240325
-0.229942
-0.217929
-0.185757
-0.146781
-0.091725
-0.056168
-0.017872
0.023207
0.044944
0.057342
0.043661
0.027152
-0.007435
-0.042589
-0.086276
-0.124998
-0.172948
-0.207930
-0.229149
-0.242394
-0.238470
-0.207626
-0.187012
-0.145897
-0.102549
-0.052666
-0.003892
0.026898
0.049918
0.066852
0.052225
0.026135
-0.011921
-0.054507
-0.096400
-0.139758
-0.163604
-0.203784
-0.234547
-0.248183
-0.239077
-0.213913
-0.177052
-0.143336
-0.090593
-0.055562
-0.017650
0.022065
0.046730
0.049018
0.043210
0.025262
0.008484
-0.042729
-0.091357
-0.142710
-0.181288
-0.217436
-0.241174
-0.255517
-0.251364
-0.232621
-0.187554
-0.155975
-0.111489
-0.070901
-0.031645
0.003159
0.040151
0.054426
0.054250
0.048615
0.023673
-0.007837
-0.043020
-0.071621
-0.096516
-0.121927
-0.121550
-0.119579
-0.105091
-0.075458
-0.020297
0.046921
0.116852
0.194871
0.263721
0.339297
0.393641
0.426585
0.460729
0.484126
0.485712
0.482695
0.461932
0.441317
0.434988
0.462104
0.487921
0.518424
0.543734
0.597429
0.654803
0.701779
0.739860
0.796935
0.819772
0.826613
0.831999
0.823643
0.781082
0.715157
0.609351
0.505258
0.399741
0.299758
0.210289
0.121068
0.043189
-0.001383
-0.011069
0.001010
0.028240
0.065353
0.092432
0.137601
0.155060
0.189784
0.203253
0.191107
0.173601
0.144317
0.108277
0.066117
0.016462
-0.031087
-0.078127
-0.117887
-0.141027
-0.149633
-0.160657
-0.138160
-0.097890
-0.060646
-0.014908
0.029315
0.075809
0.105873
0.116755
0.118513
0.106269
0.086259
0.050545
0.005900
-0.032676
-0.074358
-0.110874
-0.150828
-0.180931
-0.188351
-0.185532
-0.174202
-0.138573
-0.088582
-0.048716
0.000609
0.051227
0.072194
0.088879
0.103339
0.095187
0.082076
0.036669
0.000656
-0.041352
-0.080578
-0.118742
-0.151315
-0.163153
-0.188957
-0.175227
-0.158776
-0.134172
-0.093044
-0.041477
0.012764
0.046820
0.079175
0.107759
0.110495
0.099725
0.078845
0.044033
0.014038
-0.024229
-0.069662
-0.109391
-0.145440
-0.162893
-0.168235
-0.170139
-0.152468
-0.121968
-0.068903
-0.023524
0.022400
0.065268
0.097795
0.118752
0.124377
0.115529
0.104773
0.075224
0.043667
-0.006434
-0.048959
-0.081217
-0.124872
-0.143227
-0.153381
-0.145686
-0.119242
-0.087386
-0.050219
0.005916
0.050549
0.084458
0.127381
0.150610
0.165245
0.163919
0.147246
0.112610
0.060546
0.025338
-0.018091
-0.056268
-0.074985
-0.109248
-0.121649
-0.112701
-0.089419
-0.057746
-0.017991
0.034044
0.082158
0.117359
0.157452
0.189196
0.195059
0.192802
0.176283
0.138400
0.095828
0.050532
0.011263
-0.019589
-0.070210
-0.087766
-0.090722
-0.080598
-0.059211
-0.025308
0.017142
0.060434
0.115737
0.152080
0.185299
0.204819
0.217239
0.215811
0.188992
0.152745
0.117832
0.081160
0.032991
-0.003613
-0.043710
-0.075425
-0.078468
-0.070984
-0.050296
-0.019968
0.036481
0.074821
0.114867
0.143659
0.185695
0.207171
0.214096
0.202194
0.182424
0.152353
0.110017
0.062978
0.014453
-0.029253
-0.062691
-0.074394
-0.080630
-0.079258
-0.061309
-0.027838
0.008653
0.053484
0.101580
0.130931
0.162053
0.184157
0.180255
0.182712
0.168342
0.125710
0.082626
0.027021
-0.015306
-0.059200
-0.098016
-0.126201
-0.129069
-0.118732
-0.108764
-0.078960
-0.030545
0.006763
0.051154
0.096695
0.127129
0.139735
0.147607
0.136360
0.114605
0.081483
0.043388
-0.000229
-0.058190
-0.105414
-0.141824
-0.163774
-0.162926
-0.164987
-0.144794
-0.113147
-0.071402
-0.021979
0.023518
0.052021
0.086529
0.109105
0.116691
0.112305
0.086618
0.051214
0.012437
-0.035273
-0.083095
-0.131289
-0.163835
-0.175829
-0.185287
-0.183044
-0.164017
-0.133023
-0.098343
-0.066652
-0.020706
0.022282
0.055252
0.078461
0.088168
0.087563
0.069541
0.040941
0.007100
-0.047125
-0.095637
-0.136424
-0.162882
-0.185591
-0.195414
-0.190369
-0.164781
-0.139513
-0.100026
-0.048586
-0.008779
0.035406
0.069715
0.087810
0.083119
0.066357
0.056527
0.026007
-0.010425
-0.049454
-0.097473
-0.134065
-0.168148
-0.180059
-0.183031
-0.184225
-0.163984
-0.133835
-0.101132
-0.054316
-0.003132
0.038332
0.065096
0.085383
0.097540
0.088385
0.073311
0.034593
-0.004238
-0.055617
-0.100425
-0.128087
-0.158840
-0.177946
-0.175057
-0.180946
-0.164024
-0.129946
-0.090314
-0.033595
0.006532
0.042306
0.076183
0.095350
0.089712
0.088455
0.075231
0.045528
0.007541
-0.032917
-0.084309
-0.117187
-0.158648
-0.176348
-0.175156
-0.182797
-0.174348
-0.134930
-0.092413
-0.037285
0.012435
0.047759
0.083811
0.094148
0.100867
0.101182
0.086346
0.058624
0.018430
-0.030878
-0.081259
-0.116024
-0.153484
-0.174405
-0.182024
-0.170494
-0.147518
-0.125627
-0.088503
-0.046305
0.007719
0.039468
0.068378
0.091664
0.106355
0.103033
0.081097
0.047181
0.018092
-0.035768
-0.084741
-0.122162
-0.156419
-0.178076
-0.185399
-0.176905
-0.151957
-0.118061
-0.089792
-0.049120
0.002481
0.055344
0.086392
0.105655
0.105311
0.104068
0.086402
0.047920
0.002125
-0.041140
-0.090080
-0.134214
-0.158354
-0.182113
-0.191278
-0.186173
-0.167469
-0.140934
-0.103226
-0.059071
-0.016971
0.032592
0.072790
0.098609
0.100191
0.094705
0.067388
0.031831
-0.007712
-0.051764
-0.094697
-0.134748
-0.166338
-0.193430
-0.197655
-0.195113
-0.170344
-0.151139
-0.105301
-0.048406
0.001875
0.035820
0.071922
0.092631
0.091693
0.084432
0.070038
0.034257
-0.012545
-0.062636
-0.086374
-0.135683
-0.177204
-0.200533
-0.204985
-0.196219
-0.177129
-0.142236
-0.104667
-0.055713
-0.012966
0.024751
0.062395
0.081125
0.083903
0.079310
0.057717
0.025146
-0.021270
-0.065952
-0.112011
-0.152297
-0.182187
-0.202164
-0.199922
-0.200533
-0.179451
-0.148360
-0.099582
-0.057046
-0.018460
0.018647
0.054301
0.080286
0.081620
0.082381
0.058196
0.026601
-0.011628
-0.051201
-0.104833
-0.145329
-0.171933
-0.202619
-0.203915
-0.198383
-0.179799
-0.146491
-0.113111
-0.066485
-0.008703
0.023102
0.053993
0.079935
0.078361
0.070319
0.053270
0.021033
-0.005553
-0.058753
-0.107848
-0.139708
-0.170583
-0.203646
-0.209878
-0.208650
-0.184712
-0.173808
-0.118243
-0.058294
-0.016955
0.021802
0.050114
0.076281
0.086862
0.082868
0.052100
0.015215
-0.021200
-0.062733
-0.115042
-0.148817
-0.181675
-0.208455
-0.210857
-0.213435
-0.186260
-0.150081
-0.114331
-0.064957
-0.019946
0.015586
0.050782
0.072922
0.073478
0.075227
0.056359
0.015527
-0.020239
-0.064939
-0.111550
-0.152084
-0.185999
-0.209564
-0.203426
-0.207115
-0.184060
-0.147448
-0.107898
-0.058472
-0.022804
0.025378
0.055869
0.072832
0.077625
0.071912
0.057928
0.021065
-0.014374
-0.062245
-0.104286
-0.156773
-0.185168
-0.201221
-0.207053
-0.202298
-0.173115
-0.137668
-0.100366
-0.061632
-0.004988
0.031821
0.070203
0.081918
0.081915
0.088561
0.067431
0.043631
0.017469
-0.018238
-0.061243
-0.103261
-0.138560
-0.163765
-0.170471
-0.161431
-0.144156
-0.104204
-0.075459
-0.025103
0.014974
0.057801
0.089174
0.115904
0.120853
0.118963
0.089322
0.050631
0.007107
-0.033461
-0.073405
-0.107231
-0.140895
-0.166013
-0.165671
-0.155511
-0.123219
-0.092483
-0.052449
-0.001470
0.039751
0.074653
0.105740
0.128984
0.136280
0.140662
0.120803
0.082657
0.038698
-0.019914
-0.060989
-0.098388
-0.124611
-0.149942
-0.164302
-0.164344
-0.150498
-0.131195
-0.085262
-0.048349
0.000409
0.036272
0.068879
0.099094
0.103899
0.100907
0.071103
0.042055
-0.003260
-0.055452
-0.097060
-0.141708
-0.169495
-0.197590
-0.202808
-0.193649
-0.180838
-0.148943
-0.109032
-0.060155
-0.025006
0.014412
0.042715
0.066187
0.069109
0.082853
0.060250
0.019762
-0.028158
-0.077975
-0.131440
-0.161474
-0.202300
-0.227806
-0.221876
-0.219937
-0.194831
-0.160467
-0.112836
-0.079456
-0.039927
-0.000698
0.031824
0.057261
0.069872
0.063606
0.034972
-0.004148
-0.046547
-0.088028
-0.124055
-0.172034
-0.199879
-0.222275
-0.230901
-0.223687
-0.203130
-0.173025
-0.134458
-0.087465
-0.044595
0.001093
0.032181
0.049725
0.054809
0.056119
0.035066
0.003578
-0.042852
-0.086913
-0.121028
-0.162763
-0.190418
-0.212418
-0.231619
-0.220529
-0.205611
-0.183892
-0.135822
-0.084051
-0.049596
0.001273
0.029800
0.051574
0.067271
0.054688
0.035849
0.004929
-0.043411
-0.092656
-0.138901
-0.166155
-0.207072
-0.233586
-0.241057
-0.232033
-0.202334
-0.167167
-0.129961
-0.095471
-0.047897
0.000280
0.044640
0.077008
0.097952
0.099587
0.098617
0.078579
0.043845
0.021123
0.002806
-0.018909
-0.030604
-0.045287
-0.026205
-0.001353
0.038402
0.094371
0.163350
0.242189
0.323816
0.406413
0.469215
0.523973
0.570575
0.588746
0.602654
0.605610
0.606911
0.605913
0.594190
0.584092
0.592495
0.601477
0.606761
0.607903
0.625316
0.653714
0.670242
0.689666
0.718424
0.736766
0.746352
0.704713
0.631603
0.569951
0.488076
0.401395
0.309984
0.206113
0.124721
0.055301
0.006001
-0.019590
-0.024491
-0.029726
-0.018963
0.007091
0.033904
0.075618
0.104633
0.131564
0.158008
0.172052
0.175851
0.168274
0.137650
0.100989
0.048715
0.009299
-0.040270
-0.084650
-0.109165
-0.140058
-0.155745
-0.157530
-0.128901
-0.108315
-0.059504
-0.014927
0.024793
0.068445
0.083082
0.099712
0.122096
0.118456
0.090621
0.060122
0.013122
-0.041789
-0.083069
-0.122519
-0.155925
-0.187227
-0.187629
-0.179405
-0.158521
-0.117315
-0.077785
-0.041808
0.003253
0.055787
0.084413
0.100903
0.103316
0.094881
0.072784
0.044850
0.007183
-0.044646
-0.080197
-0.112583
-0.139759
-0.161732
-0.174307
-0.168251
-0.141673
-0.120472
-0.078733
-0.027256
0.022434
0.063464
0.085308
0.107001
0.112254
0.111096
0.091904
0.066659
0.014306
-0.027656
-0.063175
-0.106630
-0.131964
-0.147184
-0.159137
-0.154130
-0.140474
-0.104353
-0.067444
-0.009738
0.037418
0.081772
0.103984
0.136261
0.139017
0.128904
0.106076
0.078810
0.037428
-0.003158
-0.041458
-0.092344
-0.106625
-0.135647
-0.138185
-0.126527
-0.101363
-0.075933
-0.027340
0.019888
0.064070
0.105662
0.129754
0.159402
0.160582
0.164429
0.150009
0.115928
0.078414
0.031304
-0.021779
-0.058513
-0.085155
-0.111602
-0.107056
-0.102080
-0.073316
-0.033257
-0.000532
0.050530
0.096735
0.136406
0.166063
0.192021
0.197827
0.196073
0.175427
0.141987
0.108000
0.068499
0.014930
-0.024242
-0.045134
-0.065948
-0.067234
-0.062688
-0.051757
-0.031264
0.013523
0.068559
0.112339
0.165781
0.187459
0.207238
0.219580
0.214661
0.203241
0.170409
0.116947
0.076615
0.035643
-0.010980
-0.039023
-0.066943
-0.070089
-0.067259
-0.044102
-0.012457
0.021621
0.059902
0.117635
0.155138
0.177121
0.189826
0.200936
0.188576
0.183827
0.159905
0.111291
0.062951
0.020328
-0.028958
-0.065695
-0.073322
-0.096160
-0.080092
-0.056677
-0.026211
0.009139
0.052187
0.097474
0.136850
0.154841
0.176400
0.191210
0.177131
0.153070
0.121051
0.073911
0.022436
-0.022551
-0.049142
-0.087343
-0.113916
-0.120139
-0.119784
-0.107775
-0.083477
-0.035864
0.003607
0.043282
0.084390
0.120190
0.143659
0.151383
0.138584
0.120439
0.079670
0.036415
-0.014072
-0.061724
-0.108560
-0.130587
-0.161968
-0.176030
-0.165331
-0.145810
-0.115590
-0.082700
-0.037013
0.011462
0.057072
0.075856
0.105737
0.116422
0.106319
0.088258
0.051161
0.008708
-0.044458
-0.092044
-0.127369
-0.161066
-0.180261
-0.193335
-0.195726
-0.176809
-0.136980
-0.098950
-0.052462
-0.013074
0.032770
0.054854
0.081868
0.084899
0.079740
0.069389
0.039106
-0.001746
-0.046236
-0.106138
-0.137728
-0.157665
-0.182900
-0.187859
-0.190421
-0.173812
-0.142410
-0.097669
-0.056302
-0.019814
0.020053
0.049954
0.076112
0.091560
0.082936
0.074205
0.032985
-0.011376
-0.061253
-0.097832
-0.132234
-0.157561
-0.182603
-0.194448
-0.182193
-0.165702
-0.145883
-0.093506
-0.055235
-0.013000
0.023437
0.057773
0.091874
0.098277
0.099579
0.079808
0.048205
0.001736
-0.047688
-0.090173
-0.128688
-0.150507
-0.173682
-0.185164
-0.172883
-0.162395
-0.130320
-0.082417
-0.038498
-0.003220
0.038405
0.069777
0.087352
0.102688
0.094817
0.076677
0.045090
0.009926
-0.035599
-0.080400
-0.123355
-0.155469
-0.187174
-0.188561
-0.178937
-0.154703
-0.117848
-0.077428
-0.035467
0.006743
0.040921
0.073235
0.099948
0.106415
0.093477
0.087899
0.058573
0.005348
-0.033890
-0.075876
-0.123566
-0.154664
-0.173731
-0.182871
-0.181797
-0.157727
-0.125584
-0.090589
-0.050257
0.004013
0.052223
0.079493
0.093193
0.106833
0.096104
0.076852
0.045414
0.013206
-0.034051
-0.083995
-0.125381
-0.155226
-0.175715
-0.183154
-0.170721
-0.165505
-0.133069
-0.106103
-0.058751
-0.007268
0.030882
0.065995
0.096878
0.091058
0.088930
0.064591
0.033938
-0.009087
-0.053743
-0.094108
-0.139294
-0.168988
-0.181125
-0.191751
-0.178254
-0.164101
-0.128072
-0.088349
-0.035305
-0.002204
0.034596
0.067909
0.092584
0.095542
0.093744
0.065134
0.035891
-0.013547
-0.062399
-0.099837
-0.147540
-0.170084
-0.194783
-0.206578
-0.197071
-0.164077
-0.126952
-0.090416
-0.055910
-0.013375
0.029046
0.066568
0.082831
0.090909
0.080105
0.071957
0.022962
-0.010710
-0.041692
-0.101162
-0.143923
-0.167571
-0.199035
-0.204666
-0.199795
-0.181026
-0.153854
-0.111428
-0.068018
-0.016059
0.021796
0.054332
0.070673
0.074279
0.080819
0.062734
0.031364
-0.019581
-0.050640
-0.102328
-0.143940
-0.179561
-0.201479
-0.213278
-0.197487
-0.177695
-0.145160
-0.101155
-0.061833
-0.013412
0.024626
0.059363
0.074265
0.080020
0.072845
0.054986
0.031826
-0.006588
-0.062234
-0.109043
-0.147037
-0.185222
-0.207226
-0.200250
-0.191930
-0.175728
-0.145020
-0.109608
-0.059683
-0.009262
0.017949
0.046429
0.071079
0.077177
0.068131
0.057775
0.020091
-0.018626
-0.063334
-0.112616
-0.145740
-0.174170
-0.199918
-0.210084
-0.202856
-0.188944
-0.157431
-0.121439
-0.070294
-0.025991
0.020977
0.046834
0.068221
0.068397
0.062818
0.048607
0.020324
-0.017276
-0.056905
-0.103034
-0.141225
-0.186161
-0.198901
-0.214116
-0.205107
-0.186703
-0.145670
-0.113944
-0.062325
-0.016019
0.020177
0.046343
0.063383
0.076500
0.065911
0.040922
0.014601
-0.028788
-0.071530
-0.105280
-0.138087
-0.183639
-0.209382
-0.213557
-0.197157
-0.175607
-0.147073
-0.110215
-0.051723
-0.004789
0.030817
0.061085
0.085593
0.083030
0.079032
0.062274
0.025329
-0.008665
-0.044426
-0.093300
-0.127363
-0.152059
-0.172699
-0.179950
-0.165033
-0.145908
-0.117448
-0.072655
-0.026625
0.021671
0.060958
0.089652
0.115787
0.130277
0.107913
0.080899
0.052731
0.012336
-0.038943
-0.093741
-0.141018
-0.159188
-0.166818
-0.187652
-0.169496
-0.144261
-0.104309
-0.064509
-0.017647
0.031352
0.080120
0.099636
0.128106
0.142164
0.129414
0.111810
0.075773
0.047823
0.005358
-0.051737
-0.094637
-0.123050
-0.147883
-0.160944
-0.163989
-0.146421
-0.122211
-0.076404
-0.043612
-0.005657
0.032516
0.065900
0.082229
0.100677
0.089287
0.077639
0.045361
-0.000633
-0.047445
-0.097319
-0.136014
-0.164601
-0.182793
-0.197930
-0.193414
-0.170463
-0.140687
-0.103446
-0.060367
-0.015048
0.031051
0.055175
0.072604
0.067880
0.074039
0.046286
0.002505
-0.029499
-0.072029
-0.117763
-0.163903
-0.208575
-0.228643
-0.237430
-0.215074
-0.210602
-0.174568
-0.136996
-0.092939
-0.043752
0.005467
0.035823
0.054649
0.053484
0.050192
0.028042
-0.002152
-0.032752
-0.079210
-0.128591
-0.171839
-0.207826
-0.224467
-0.222897
-0.228986
-0.211262
-0.180721
-0.135163
-0.087650
-0.039173
-0.009434
0.024603
0.042157
0.050236
0.052382
0.035909
0.003073
-0.035254
-0.088757
-0.131042
-0.180893
-0.217827
-0.229724
-0.235544
-0.223901
-0.210636
-0.173445
-0.137994
-0.090852
-0.036738
0.006405
0.039140
0.061200
0.064577
0.052499
0.030262
-0.001893
-0.038904
-0.088100
-0.142163
-0.184796
-0.221755
-0.231494
-0.241562
-0.228684
-0.211996
-0.180099
-0.145556
-0.109673
-0.070874
-0.026460
0.023027
0.041307
0.053958
0.047222
0.036372
0.017611
-0.012132
-0.042313
-0.070698
-0.095639
-0.124212
-0.125016
-0.113270
-0.094422
-0.065189
-0.006401
0.057059
0.124555
0.191750
0.262125
0.328666
0.381624
0.409405
0.434736
0.449753
0.443571
0.446868
0.431307
0.420576
0.415437
0.418244
0.449113
0.491045
0.526680
0.576770
0.641303
0.702994
0.745493
0.785484
0.818142
0.822818
0.831790
0.820817
0.789263
0.737122
0.662421
0.547409
0.435647
0.323671
0.235987
0.149522
0.079793
0.025179
0.007744
0.008906
0.029363
0.055790
0.105354
0.142157
0.169190
0.196503
0.201611
0.193109
0.177574
0.157860
0.111494
0.069080
0.022414
-0.028920
-0.064601
-0.100275
-0.127605
-0.140298
-0.139248
-0.124298
-0.099832
-0.068399
-0.011923
0.025966
0.062428
0.090581
0.104301
0.111213
0.117026
0.093764
0.058858
0.021555
-0.029046
-0.081440
-0.120615
-0.150015
-0.176499
-0.178238
-0.181457
-0.155908
-0.122799
-0.083437
-0.038855
0.014861
0.057271
0.081330
0.100198
0.108745
0.099756
0.080012
0.044484
0.003348
-0.038656
-0.086163
-0.122785
-0.156740
-0.167640
-0.176262
-0.169425
-0.155403
-0.119003
-0.091288
-0.046346
0.010586
0.049214
0.084147
0.102276
0.109747
0.106860
0.091719
0.066718
0.023113
-0.028585
-0.065518
-0.104106
-0.144294
-0.164822
-0.173744
-0.162183
-0.129930
-0.100537
-0.065123
-0.019139
0.028071
0.069565
0.110192
0.127420
0.125409
0.122369
0.100134
0.076051
0.042903
-0.014241
-0.055328
-0.081688
-0.111503
-0.127514
-0.142604
-0.136655
-0.112534
-0.073709
-0.035818
0.015754
0.055454
0.089324
0.130593
0.147762
0.152754
0.145902
0.129936
0.096327
0.065356
0.016355
-0.026365
-0.068977
-0.095222
-0.103087
-0.114191
-0.103592
-0.081455
-0.038240
-0.000962
0.052867
0.095491
0.126209
0.157142
0.178530
0.188794
0.183570
0.159181
0.133605
0.098356
0.051844
0.010637
-0.032132
-0.077575
-0.086123
-0.096684
-0.080602
-0.058480
-0.020237
0.020690
0.073806
0.119458
0.163201
0.191637
0.193761
0.203391
0.218632
0.207781
0.159138
0.119022
0.076667
0.029140
-0.011507
-0.050163
-0.054375
-0.069825
-0.068288
-0.045877
-0.018219
0.014011
0.063927
0.119724
0.157527
0.198853
0.210193
0.220712
0.214896
0.190648
0.151908
0.119308
0.070222
0.019926
-0.009028
-0.047541
-0.079461
-0.085646
-0.080128
-0.057765
-0.024573
0.011464
0.057189
0.097283
0.120750
0.159972
0.178463
0.182825
0.184588
0.163013
0.140090
0.093495
0.034070
-0.014149
-0.055028
-0.094937
-0.104245
-0.119693
-0.112286
-0.090643
-0.064854
-0.018937
0.030689
0.072611
0.105505
0.127160
0.128419
0.141677
0.147525
0.126786
0.095078
0.041141
-0.002177
-0.044421
-0.089424
-0.126314
-0.156560
-0.157317
-0.145709
-0.129640
-0.101177
-0.057273
-0.021572
0.016319
0.064557
0.100501
0.119424
0.125244
0.113149
0.095489
0.061986
0.018142
-0.042144
-0.077687
-0.119701
-0.146950
-0.175055
-0.182847
-0.179138
-0.160131
-0.134233
-0.101219
-0.049077
-0.002331
0.031760
0.067091
0.079665
0.084491
0.086617
0.069739
0.043398
-0.004991
-0.040795
-0.087441
-0.136156
-0.171240
-0.181260
-0.190853
-0.191899
-0.168305
-0.140190
-0.104609
-0.048527
0.000032
0.035495
0.070953
0.086254
0.090660
0.083760
0.062873
0.035993
-0.007441
-0.061510
-0.093625
-0.131799
-0.173493
-0.188020
-0.196342
-0.181009
-0.157623
-0.139853
-0.099985
-0.060792
-0.006733
0.030775
0.077750
0.095431
0.114696
0.110934
0.096677
0.058359
0.010576
-0.037903
-0.086372
-0.132693
-0.160256
-0.180604
-0.186596
-0.182669
-0.159570
-0.127910
-0.087579
-0.027546
0.015473
0.045320
0.086824
0.097662
0.104101
0.104305
0.084391
0.055705
0.001881
-0.050555
-0.092797
-0.124329
-0.161499
-0.181242
-0.190071
-0.166438
-0.146291
-0.119692
-0.081222
-0.032348
0.015807
0.050591
0.083878
0.099641
0.100030
0.094426
0.083084
0.071465
0.031710
-0.020874
-0.069761
-0.112751
-0.142716
-0.160812
-0.172719
-0.163396
-0.131938
-0.115314
-0.079676
-0.035501
0.005687
0.048306
0.077945
0.096101
0.104371
0.102208
0.075188
0.054473
0.015872
-0.031693
-0.071391
-0.117978
-0.148628
-0.170790
-0.186046
-0.171021
-0.146948
-0.116947
-0.086168
-0.032706
0.010348
0.050315
0.087931
0.093414
0.104517
0.098408
0.075441
0.051329
0.009319
-0.038154
-0.099845
-0.129884
-0.159759
